 BEGIN header
 Number of ions         10
 Number of branches     30
 Number of wavevectors  1
 Frequencies in         cm-1
 IR intensities in      (D/A)**2/amu
 Raman activities in    A**4 amu**(-1)
 Unit cell vectors (A)
    5.986616   -3.456375    0.000000
    0.000000    6.912749   -0.000000
    0.000000   -0.000000    7.694515
 Fractional Co-ordinates
     1     0.666667    0.333333    0.500000   Al       26.982000
     2     0.333333    0.666667    0.500000   Al       26.982000
     3     0.000000    0.000000    0.350403   Si       28.084999
     4     0.000000    0.000000    0.649597   Si       28.084999
     5     1.000000    0.643928    0.730371   Te      127.599998
     6     0.356072    0.356072    0.730371   Te      127.599998
     7     0.643928    0.000000    0.730371   Te      127.599998
     8     0.356072    0.000000    0.269629   Te      127.599998
     9     0.643928    0.643928    0.269629   Te      127.599998
    10     1.000000    0.356072    0.269629   Te      127.599998
 END header
     q-pt=    1    0.000000  0.000000  0.000000      1.0000000000
       1      -0.018370              0.0000000               0.0000000          
       2      -0.013094              0.0000000               0.0000000          
       3      -0.013094              0.0000000               0.0000000          
       4      67.700278              0.0000000            1966.5854085          
       5      67.700278              0.0000000            1966.5856339          
       6      70.920843              0.0000000               0.0000000          
       7      78.814623              0.1013560               0.0000000          
       8      78.814623              0.1013560               0.0000000          
       9      86.166902              0.0000000             139.0059047          
      10      86.166902              0.0000000             139.0060056          
      11      87.968070              0.0011408               0.0000000          
      12     101.547332              0.0316554               0.0000000          
      13     101.547332              0.0316554               0.0000000          
      14     103.501456              0.0000000               0.0000000          
      15     107.921555              0.0000000            1066.5478340          
      16     109.438719              0.0000000             485.1537928          
      17     109.438719              0.0000000             485.1541848          
      18     145.892339              0.0000000           27909.1261581          
      19     195.555146              0.0987201               0.0000000          
      20     205.418834             29.6980850               0.0000000          
      21     205.418834             29.6980850               0.0000000          
      22     207.136616              0.0000000               0.0000000          
      23     218.035745              0.0000000            8692.6619475          
      24     218.035745              0.0000000            8692.6620394          
      25     303.309789              2.5108271               0.0000000          
      26     346.957275              5.7581632               0.0000000          
      27     346.957275              5.7581632               0.0000000          
      28     347.628125              0.0000000           20999.8896349          
      29     347.628125              0.0000000           20999.9006057          
      30     476.008563              0.0000000            2177.6376197          
                        Phonon Eigenvectors
Mode Ion                X                                   Y                                   Z
   1   1  0.000000001903  0.000000000000     -0.000000001108  0.000000000000      0.182410535929  0.000000000000
   1   2  0.000000001903  0.000000000000     -0.000000001108  0.000000000000      0.182410535929  0.000000000000
   1   3  0.000000001968  0.000000000000     -0.000000001146  0.000000000000      0.162518610594  0.000000000000
   1   4  0.000000001968  0.000000000000     -0.000000001146  0.000000000000      0.162518610594  0.000000000000
   1   5  0.000000004145  0.000000000000      0.008126241993  0.000000000000      0.383021317975  0.000000000000
   1   6 -0.007037529947  0.000000000000     -0.004063124615  0.000000000000      0.383021317975  0.000000000000
   1   7  0.007037538278  0.000000000000     -0.004063124639  0.000000000000      0.383021317946  0.000000000000
   1   8  0.007037538278  0.000000000000     -0.004063124639  0.000000000000      0.383021317946  0.000000000000
   1   9 -0.007037529947  0.000000000000     -0.004063124615  0.000000000000      0.383021317975  0.000000000000
   1  10  0.000000004145  0.000000000000      0.008126241993  0.000000000000      0.383021317975  0.000000000000
   2   1 -0.169258390175  0.000000000000      0.042884501880  0.000000000000      0.000000002211  0.000000000000
   2   2 -0.169258390175  0.000000000000      0.042884501880  0.000000000000      0.000000002211  0.000000000000
   2   3 -0.175095098206  0.000000000000      0.044363331475  0.000000000000      0.000000001970  0.000000000000
   2   4 -0.175095098206  0.000000000000      0.044363331475  0.000000000000      0.000000001970  0.000000000000
   2   5 -0.368735505775  0.000000000000      0.094026107631  0.000000000000     -0.000384721431  0.000000000000
   2   6 -0.370253480660  0.000000000000      0.092549030382  0.000000000000     -0.001122651502  0.000000000000
   2   7 -0.370773679382  0.000000000000      0.094602173671  0.000000000000      0.001507386862  0.000000000000
   2   8 -0.370773679382  0.000000000000      0.094602173671  0.000000000000      0.001507386862  0.000000000000
   2   9 -0.370253480660  0.000000000000      0.092549030382  0.000000000000     -0.001122651502  0.000000000000
   2  10 -0.368735505775  0.000000000000      0.094026107631  0.000000000000     -0.000384721431  0.000000000000
   3   1  0.042884501880  0.000000000000      0.169258390175  0.000000000000      0.000000000633  0.000000000000
   3   2  0.042884501880  0.000000000000      0.169258390175  0.000000000000      0.000000000633  0.000000000000
   3   3  0.044363331475  0.000000000000      0.175095098206  0.000000000000      0.000000000564  0.000000000000
   3   4  0.044363331475  0.000000000000      0.175095098206  0.000000000000      0.000000000564  0.000000000000
   3   5  0.093425433590  0.000000000000      0.371106271465  0.000000000000     -0.001518452028  0.000000000000
   3   6  0.094902510667  0.000000000000      0.369588296623  0.000000000000      0.001092410562  0.000000000000
   3   7  0.092849367426  0.000000000000      0.369068097730  0.000000000000      0.000426045455  0.000000000000
   3   8  0.092849367426  0.000000000000      0.369068097730  0.000000000000      0.000426045455  0.000000000000
   3   9  0.094902510667  0.000000000000      0.369588296623  0.000000000000      0.001092410562  0.000000000000
   3  10  0.093425433590  0.000000000000      0.371106271465  0.000000000000     -0.001518452028  0.000000000000
   4   1 -0.041103804437  0.000000000000     -0.100332971334  0.000000000000     -0.000000000000  0.000000000000
   4   2  0.041103804437  0.000000000000      0.100332971334  0.000000000000      0.000000000000  0.000000000000
   4   3 -0.124605493121  0.000000000000      0.051047624255  0.000000000000      0.000000000000  0.000000000000
   4   4  0.124605493121  0.000000000000     -0.051047624255  0.000000000000      0.000000000000  0.000000000000
   4   5  0.305552988969  0.000000000000     -0.135395704663  0.000000000000     -0.105068743282  0.000000000000
   4   6  0.319835651098  0.000000000000     -0.116931000356  0.000000000000     -0.169574457507  0.000000000000
   4   7  0.328685223037  0.000000000000     -0.138532500747  0.000000000000      0.274643200789  0.000000000000
   4   8 -0.328685223037  0.000000000000      0.138532500747  0.000000000000     -0.274643200789  0.000000000000
   4   9 -0.319835651098  0.000000000000      0.116931000356  0.000000000000      0.169574457507  0.000000000000
   4  10 -0.305552988969  0.000000000000      0.135395704663  0.000000000000      0.105068743282  0.000000000000
   5   1 -0.100332971334  0.000000000000      0.041103804437  0.000000000000      0.000000000000  0.000000000000
   5   2  0.100332971334  0.000000000000     -0.041103804437  0.000000000000      0.000000000000  0.000000000000
   5   3  0.051047624255  0.000000000000      0.124605493121  0.000000000000     -0.000000000000  0.000000000000
   5   4 -0.051047624255  0.000000000000     -0.124605493121  0.000000000000     -0.000000000000  0.000000000000
   5   5 -0.125177099181  0.000000000000     -0.330496253100  0.000000000000     -0.256469184596  0.000000000000
   5   6 -0.143641803488  0.000000000000     -0.316213590971  0.000000000000      0.219226793124  0.000000000000
   5   7 -0.122040303097  0.000000000000     -0.307364019033  0.000000000000      0.037242391472  0.000000000000
   5   8  0.122040303097  0.000000000000      0.307364019033  0.000000000000     -0.037242391472  0.000000000000
   5   9  0.143641803488  0.000000000000      0.316213590971  0.000000000000     -0.219226793124  0.000000000000
   5  10  0.125177099181  0.000000000000      0.330496253100  0.000000000000      0.256469184596  0.000000000000
   6   1 -0.000000000000  0.000000000000     -0.000000000000  0.000000000000      0.250997380521  0.000000000000
   6   2  0.000000000000  0.000000000000      0.000000000000  0.000000000000     -0.250997380521  0.000000000000
   6   3 -0.000000000000  0.000000000000      0.000000000000  0.000000000000     -0.000000000000  0.000000000000
   6   4  0.000000000000  0.000000000000     -0.000000000000  0.000000000000     -0.000000000000  0.000000000000
   6   5  0.381663165183  0.000000000000     -0.000000000000  0.000000000000     -0.000000000000  0.000000000000
   6   6 -0.190831582591  0.000000000000      0.330529996737  0.000000000000     -0.000000000000  0.000000000000
   6   7 -0.190831582591  0.000000000000     -0.330529996737  0.000000000000      0.000000000000  0.000000000000
   6   8  0.190831582591  0.000000000000      0.330529996737  0.000000000000      0.000000000000  0.000000000000
   6   9  0.190831582591  0.000000000000     -0.330529996737  0.000000000000     -0.000000000000  0.000000000000
   6  10 -0.381663165183  0.000000000000      0.000000000000  0.000000000000      0.000000000000  0.000000000000
   7   1 -0.034643151321  0.000000000000     -0.028522684260  0.000000000000     -0.000000000000  0.000000000000
   7   2 -0.034643151321  0.000000000000     -0.028522684260  0.000000000000     -0.000000000000  0.000000000000
   7   3  0.061066524009  0.000000000000      0.050277792774  0.000000000000      0.000000000000  0.000000000000
   7   4  0.061066524009  0.000000000000      0.050277792774  0.000000000000      0.000000000000  0.000000000000
   7   5  0.018837275266  0.000000000000     -0.024036695919  0.000000000000     -0.362798541250  0.000000000000
   7   6 -0.034310494083  0.000000000000     -0.015175618546  0.000000000000      0.563012270055  0.000000000000
   7   7 -0.000062691298  0.000000000000      0.026421161178  0.000000000000     -0.200213728805  0.000000000000
   7   8 -0.000062691298  0.000000000000      0.026421161178  0.000000000000     -0.200213728805  0.000000000000
   7   9 -0.034310494083  0.000000000000     -0.015175618546  0.000000000000      0.563012270055  0.000000000000
   7  10  0.018837275266  0.000000000000     -0.024036695919  0.000000000000     -0.362798541250  0.000000000000
   8   1  0.028522684260  0.000000000000     -0.034643151321  0.000000000000     -0.000000000000  0.000000000000
   8   2  0.028522684260  0.000000000000     -0.034643151321  0.000000000000      0.000000000000  0.000000000000
   8   3 -0.050277792774  0.000000000000      0.061066524009  0.000000000000      0.000000000000  0.000000000000
   8   4 -0.050277792774  0.000000000000      0.061066524009  0.000000000000      0.000000000000  0.000000000000
   8   5 -0.015509260395  0.000000000000     -0.029194548676  0.000000000000     -0.440648735895  0.000000000000
   8   6 -0.006648183021  0.000000000000      0.023953220673  0.000000000000     -0.093868385231  0.000000000000
   8   7  0.034948596702  0.000000000000     -0.010294582112  0.000000000000      0.534517121126  0.000000000000
   8   8  0.034948596702  0.000000000000     -0.010294582112  0.000000000000      0.534517121126  0.000000000000
   8   9 -0.006648183021  0.000000000000      0.023953220673  0.000000000000     -0.093868385231  0.000000000000
   8  10 -0.015509260395  0.000000000000     -0.029194548676  0.000000000000     -0.440648735895  0.000000000000
   9   1 -0.109369018580  0.000000000000      0.038960088063  0.000000000000      0.000000000000  0.000000000000
   9   2  0.109369018580  0.000000000000     -0.038960088063  0.000000000000      0.000000000000  0.000000000000
   9   3 -0.040540669751  0.000000000000     -0.113806038018  0.000000000000      0.000000000000  0.000000000000
   9   4  0.040540669751  0.000000000000      0.113806038018  0.000000000000      0.000000000000  0.000000000000
   9   5  0.061530336988  0.000000000000      0.191661998840  0.000000000000     -0.461106476193  0.000000000000
   9   6  0.074787325791  0.000000000000      0.180382297675  0.000000000000      0.372804939156  0.000000000000
   9   7  0.058390323633  0.000000000000      0.174541259176  0.000000000000      0.088301537037  0.000000000000
   9   8 -0.058390323633  0.000000000000     -0.174541259176  0.000000000000     -0.088301537037  0.000000000000
   9   9 -0.074787325791  0.000000000000     -0.180382297675  0.000000000000     -0.372804939156  0.000000000000
   9  10 -0.061530336988  0.000000000000     -0.191661998840  0.000000000000      0.461106476192  0.000000000000
  10   1  0.038960088063  0.000000000000      0.109369018580  0.000000000000      0.000000000000  0.000000000000
  10   2 -0.038960088063  0.000000000000     -0.109369018580  0.000000000000      0.000000000000  0.000000000000
  10   3 -0.113806038018  0.000000000000      0.040540669751  0.000000000000     -0.000000000000  0.000000000000
  10   4  0.113806038018  0.000000000000     -0.040540669751  0.000000000000     -0.000000000000  0.000000000000
  10   5  0.172728371621  0.000000000000     -0.068274987286  0.000000000000      0.164258115799  0.000000000000
  10   6  0.184008072786  0.000000000000     -0.055017998483  0.000000000000      0.317200864333  0.000000000000
  10   7  0.189849111284  0.000000000000     -0.071415000641  0.000000000000     -0.481458980131  0.000000000000
  10   8 -0.189849111284  0.000000000000      0.071415000641  0.000000000000      0.481458980131  0.000000000000
  10   9 -0.184008072786  0.000000000000      0.055017998483  0.000000000000     -0.317200864333  0.000000000000
  10  10 -0.172728371621  0.000000000000      0.068274987286  0.000000000000     -0.164258115799  0.000000000000
  11   1  0.000000000000  0.000000000000      0.000000000000  0.000000000000     -0.140931571138  0.000000000000
  11   2 -0.000000000000  0.000000000000     -0.000000000000  0.000000000000     -0.140931571138  0.000000000000
  11   3 -0.000000000000  0.000000000000     -0.000000000000  0.000000000000      0.401045273978  0.000000000000
  11   4  0.000000000000  0.000000000000     -0.000000000000  0.000000000000      0.401045273978  0.000000000000
  11   5  0.000000000000  0.000000000000     -0.325084629312  0.000000000000     -0.027452576263  0.000000000000
  11   6  0.281531547364  0.000000000000      0.162542314656  0.000000000000     -0.027452576263  0.000000000000
  11   7 -0.281531547364  0.000000000000      0.162542314656  0.000000000000     -0.027452576263  0.000000000000
  11   8 -0.281531547364  0.000000000000      0.162542314656  0.000000000000     -0.027452576263  0.000000000000
  11   9  0.281531547364  0.000000000000      0.162542314656  0.000000000000     -0.027452576263  0.000000000000
  11  10 -0.000000000000  0.000000000000     -0.325084629312  0.000000000000     -0.027452576263  0.000000000000
  12   1 -0.000594406836  0.000000000000     -0.123309697840  0.000000000000     -0.000000000000  0.000000000000
  12   2 -0.000594406836  0.000000000000     -0.123309697840  0.000000000000     -0.000000000000  0.000000000000
  12   3  0.000707522910  0.000000000000      0.146775627309  0.000000000000      0.000000000000  0.000000000000
  12   4  0.000707522910  0.000000000000      0.146775627309  0.000000000000      0.000000000000  0.000000000000
  12   5 -0.001919706693  0.000000000000      0.386932353146  0.000000000000     -0.022636750248  0.000000000000
  12   6  0.340909928343  0.000000000000     -0.200310370654  0.000000000000      0.011412875008  0.000000000000
  12   7 -0.339072006173  0.000000000000     -0.203588181865  0.000000000000      0.011223875241  0.000000000000
  12   8 -0.339072006173  0.000000000000     -0.203588181865  0.000000000000      0.011223875241  0.000000000000
  12   9  0.340909928343  0.000000000000     -0.200310370654  0.000000000000      0.011412875008  0.000000000000
  12  10 -0.001919706693  0.000000000000      0.386932353146  0.000000000000     -0.022636750248  0.000000000000
  13   1  0.123309697840  0.000000000000     -0.000594406836  0.000000000000      0.000000000000  0.000000000000
  13   2  0.123309697840  0.000000000000     -0.000594406836  0.000000000000     -0.000000000000  0.000000000000
  13   3 -0.146775627309  0.000000000000      0.000707522910  0.000000000000      0.000000000000  0.000000000000
  13   4 -0.146775627309  0.000000000000      0.000707522910  0.000000000000      0.000000000000  0.000000000000
  13   5  0.398243152728  0.000000000000      0.001865183678  0.000000000000     -0.000109119066  0.000000000000
  13   6 -0.188999571072  0.000000000000     -0.340964451359  0.000000000000     -0.019549441241  0.000000000000
  13   7 -0.192277382284  0.000000000000      0.339017483158  0.000000000000      0.019658560307  0.000000000000
  13   8 -0.192277382284  0.000000000000      0.339017483158  0.000000000000      0.019658560307  0.000000000000
  13   9 -0.188999571072  0.000000000000     -0.340964451359  0.000000000000     -0.019549441241  0.000000000000
  13  10  0.398243152728  0.000000000000      0.001865183678  0.000000000000     -0.000109119066  0.000000000000
  14   1 -0.000000000000  0.000000000000     -0.000000000000  0.000000000000     -0.000000000000  0.000000000000
  14   2 -0.000000000000  0.000000000000     -0.000000000000  0.000000000000     -0.000000000000  0.000000000000
  14   3  0.000000000000  0.000000000000      0.000000000000  0.000000000000     -0.000000000000  0.000000000000
  14   4  0.000000000000  0.000000000000      0.000000000000  0.000000000000     -0.000000000000  0.000000000000
  14   5  0.408248290464  0.000000000000      0.000000000000  0.000000000000      0.000000000000  0.000000000000
  14   6 -0.204124145232  0.000000000000      0.353553390593  0.000000000000      0.000000000000  0.000000000000
  14   7 -0.204124145232  0.000000000000     -0.353553390593  0.000000000000      0.000000000000  0.000000000000
  14   8 -0.204124145232  0.000000000000     -0.353553390593  0.000000000000      0.000000000000  0.000000000000
  14   9 -0.204124145232  0.000000000000      0.353553390593  0.000000000000     -0.000000000000  0.000000000000
  14  10  0.408248290464  0.000000000000      0.000000000000  0.000000000000     -0.000000000000  0.000000000000
  15   1 -0.000000000000  0.000000000000     -0.000000000000  0.000000000000      0.000000000000  0.000000000000
  15   2  0.000000000000  0.000000000000      0.000000000000  0.000000000000      0.000000000000  0.000000000000
  15   3 -0.000000000000  0.000000000000      0.000000000000  0.000000000000      0.014196634015  0.000000000000
  15   4  0.000000000000  0.000000000000     -0.000000000000  0.000000000000     -0.014196634015  0.000000000000
  15   5 -0.000000000000  0.000000000000     -0.116337948767  0.000000000000     -0.391235181024  0.000000000000
  15   6  0.100751619056  0.000000000000      0.058168974383  0.000000000000     -0.391235181024  0.000000000000
  15   7 -0.100751619056  0.000000000000      0.058168974383  0.000000000000     -0.391235181024  0.000000000000
  15   8  0.100751619056  0.000000000000     -0.058168974383  0.000000000000      0.391235181024  0.000000000000
  15   9 -0.100751619056  0.000000000000     -0.058168974383  0.000000000000      0.391235181024  0.000000000000
  15  10  0.000000000000  0.000000000000      0.116337948767  0.000000000000      0.391235181024  0.000000000000
  16   1  0.062379539054  0.000000000000     -0.011780112634  0.000000000000      0.000000000000  0.000000000000
  16   2 -0.062379539054  0.000000000000      0.011780112634  0.000000000000     -0.000000000000  0.000000000000
  16   3 -0.025772325330  0.000000000000     -0.136472869524  0.000000000000     -0.000000000000  0.000000000000
  16   4  0.025772325330  0.000000000000      0.136472869524  0.000000000000     -0.000000000000  0.000000000000
  16   5 -0.080936740206  0.000000000000      0.350932624173  0.000000000000     -0.002087496336  0.000000000000
  16   6  0.367011580012  0.000000000000     -0.169963357597  0.000000000000      0.001385148261  0.000000000000
  16   7 -0.308071733039  0.000000000000     -0.297449991603  0.000000000000      0.000702348075  0.000000000000
  16   8  0.308071733039  0.000000000000      0.297449991603  0.000000000000     -0.000702348075  0.000000000000
  16   9 -0.367011580012  0.000000000000      0.169963357597  0.000000000000     -0.001385148261  0.000000000000
  16  10  0.080936740206  0.000000000000     -0.350932624173  0.000000000000      0.002087496336  0.000000000000
  17   1 -0.011780112634  0.000000000000     -0.062379539054  0.000000000000     -0.000000000000  0.000000000000
  17   2  0.011780112634  0.000000000000      0.062379539054  0.000000000000      0.000000000000  0.000000000000
  17   3 -0.136472869524  0.000000000000      0.025772325330  0.000000000000     -0.000000000000  0.000000000000
  17   4  0.136472869524  0.000000000000     -0.025772325330  0.000000000000      0.000000000000  0.000000000000
  17   5 -0.428586440858  0.000000000000     -0.066272144718  0.000000000000      0.000394214871  0.000000000000
  17   6  0.092309540912  0.000000000000      0.381676175501  0.000000000000      0.001610717422  0.000000000000
  17   7  0.219796174919  0.000000000000     -0.293407137550  0.000000000000     -0.002004932293  0.000000000000
  17   8 -0.219796174919  0.000000000000      0.293407137550  0.000000000000      0.002004932293  0.000000000000
  17   9 -0.092309540912  0.000000000000     -0.381676175501  0.000000000000     -0.001610717422  0.000000000000
  17  10  0.428586440858  0.000000000000      0.066272144718  0.000000000000     -0.000394214871  0.000000000000
  18   1 -0.000000000000  0.000000000000      0.000000000000  0.000000000000      0.000000000000  0.000000000000
  18   2 -0.000000000000  0.000000000000      0.000000000000  0.000000000000      0.000000000000  0.000000000000
  18   3  0.000000000000  0.000000000000      0.000000000000  0.000000000000      0.057271576381  0.000000000000
  18   4 -0.000000000000  0.000000000000     -0.000000000000  0.000000000000     -0.057271576381  0.000000000000
  18   5  0.000000000000  0.000000000000      0.390217158310  0.000000000000     -0.115342496680  0.000000000000
  18   6 -0.337937972089  0.000000000000     -0.195108579155  0.000000000000     -0.115342496680  0.000000000000
  18   7  0.337937972089  0.000000000000     -0.195108579155  0.000000000000     -0.115342496680  0.000000000000
  18   8 -0.337937972089  0.000000000000      0.195108579155  0.000000000000      0.115342496680  0.000000000000
  18   9  0.337937972089  0.000000000000      0.195108579155  0.000000000000      0.115342496680  0.000000000000
  18  10 -0.000000000000  0.000000000000     -0.390217158310  0.000000000000      0.115342496680  0.000000000000
  19   1  0.000000000000  0.000000000000      0.000000000000  0.000000000000     -0.258728343276  0.000000000000
  19   2  0.000000000000  0.000000000000      0.000000000000  0.000000000000     -0.258728343276  0.000000000000
  19   3 -0.000000000000  0.000000000000      0.000000000000  0.000000000000      0.498760962255  0.000000000000
  19   4  0.000000000000  0.000000000000      0.000000000000  0.000000000000      0.498760962255  0.000000000000
  19   5 -0.000000000000  0.000000000000      0.245417776784  0.000000000000     -0.034677040586  0.000000000000
  19   6 -0.212538029235  0.000000000000     -0.122708888392  0.000000000000     -0.034677040586  0.000000000000
  19   7  0.212538029235  0.000000000000     -0.122708888392  0.000000000000     -0.034677040586  0.000000000000
  19   8  0.212538029235  0.000000000000     -0.122708888392  0.000000000000     -0.034677040586  0.000000000000
  19   9 -0.212538029235  0.000000000000     -0.122708888392  0.000000000000     -0.034677040586  0.000000000000
  19  10 -0.000000000000  0.000000000000      0.245417776784  0.000000000000     -0.034677040586  0.000000000000
  20   1 -0.297715938770  0.000000000000      0.602610205343  0.000000000000      0.000000000000  0.000000000000
  20   2 -0.297715938770  0.000000000000      0.602610205343  0.000000000000     -0.000000000000  0.000000000000
  20   3 -0.003438875764  0.000000000000      0.006960667402  0.000000000000     -0.000000000000  0.000000000000
  20   4 -0.003438875764  0.000000000000      0.006960667402  0.000000000000     -0.000000000000  0.000000000000
  20   5  0.075655586353  0.000000000000     -0.033406972363  0.000000000000     -0.035274172198  0.000000000000
  20   6  0.083136181035  0.000000000000     -0.148816406303  0.000000000000      0.002544868225  0.000000000000
  20   7 -0.020551617934  0.000000000000     -0.097590074363  0.000000000000      0.032729303973  0.000000000000
  20   8 -0.020551617934  0.000000000000     -0.097590074363  0.000000000000      0.032729303973  0.000000000000
  20   9  0.083136181035  0.000000000000     -0.148816406303  0.000000000000      0.002544868225  0.000000000000
  20  10  0.075655586353  0.000000000000     -0.033406972363  0.000000000000     -0.035274172198  0.000000000000
  21   1 -0.602610205343  0.000000000000     -0.297715938770  0.000000000000      0.000000000000  0.000000000000
  21   2 -0.602610205343  0.000000000000     -0.297715938770  0.000000000000     -0.000000000000  0.000000000000
  21   3 -0.006960667402  0.000000000000     -0.003438875764  0.000000000000      0.000000000000  0.000000000000
  21   4 -0.006960667402  0.000000000000     -0.003438875764  0.000000000000      0.000000000000  0.000000000000
  21   5  0.153135329656  0.000000000000      0.016504513283  0.000000000000      0.017426992104  0.000000000000
  21   6  0.037725895716  0.000000000000      0.009023918601  0.000000000000     -0.039261825273  0.000000000000
  21   7  0.088952227656  0.000000000000      0.112711717570  0.000000000000      0.021834833169  0.000000000000
  21   8  0.088952227656  0.000000000000      0.112711717570  0.000000000000      0.021834833169  0.000000000000
  21   9  0.037725895716  0.000000000000      0.009023918601  0.000000000000     -0.039261825273  0.000000000000
  21  10  0.153135329656  0.000000000000      0.016504513283  0.000000000000      0.017426992104  0.000000000000
  22   1  0.000000000000  0.000000000000     -0.000000000000  0.000000000000      0.661059993474  0.000000000000
  22   2  0.000000000000  0.000000000000     -0.000000000000  0.000000000000     -0.661059993474  0.000000000000
  22   3  0.000000000000  0.000000000000      0.000000000000  0.000000000000      0.000000000000  0.000000000000
  22   4  0.000000000000  0.000000000000     -0.000000000000  0.000000000000      0.000000000000  0.000000000000
  22   5 -0.144913405210  0.000000000000      0.000000000000  0.000000000000      0.000000000000  0.000000000000
  22   6  0.072456702605  0.000000000000     -0.125498690260  0.000000000000      0.000000000000  0.000000000000
  22   7  0.072456702605  0.000000000000      0.125498690260  0.000000000000     -0.000000000000  0.000000000000
  22   8 -0.072456702605  0.000000000000     -0.125498690260  0.000000000000     -0.000000000000  0.000000000000
  22   9 -0.072456702605  0.000000000000      0.125498690260  0.000000000000     -0.000000000000  0.000000000000
  22  10  0.144913405210  0.000000000000      0.000000000000  0.000000000000      0.000000000000  0.000000000000
  23   1  0.191000487949  0.000000000000     -0.648292606713  0.000000000000      0.000000000000  0.000000000000
  23   2 -0.191000487949  0.000000000000      0.648292606713  0.000000000000     -0.000000000000  0.000000000000
  23   3 -0.097646193410  0.000000000000     -0.028768599849  0.000000000000      0.000000000000  0.000000000000
  23   4  0.097646193410  0.000000000000      0.028768599849  0.000000000000      0.000000000000  0.000000000000
  23   5  0.016717460222  0.000000000000     -0.024277864646  0.000000000000     -0.033714700451  0.000000000000
  23   6 -0.070268808191  0.000000000000     -0.045296233940  0.000000000000      0.115960288099  0.000000000000
  23   7 -0.044978115739  0.000000000000      0.040545268933  0.000000000000     -0.082245587648  0.000000000000
  23   8  0.044978115739  0.000000000000     -0.040545268933  0.000000000000      0.082245587648  0.000000000000
  23   9  0.070268808191  0.000000000000      0.045296233940  0.000000000000     -0.115960288099  0.000000000000
  23  10 -0.016717460222  0.000000000000      0.024277864646  0.000000000000      0.033714700451  0.000000000000
  24   1 -0.648292606713  0.000000000000     -0.191000487949  0.000000000000     -0.000000000000  0.000000000000
  24   2  0.648292606713  0.000000000000      0.191000487949  0.000000000000     -0.000000000000  0.000000000000
  24   3 -0.028768599849  0.000000000000      0.097646193410  0.000000000000      0.000000000000  0.000000000000
  24   4  0.028768599849  0.000000000000     -0.097646193410  0.000000000000      0.000000000000  0.000000000000
  24   5  0.004925311544  0.000000000000      0.082403769361  0.000000000000      0.114434215718  0.000000000000
  24   6  0.025943680838  0.000000000000     -0.004582499052  0.000000000000     -0.028019320787  0.000000000000
  24   7 -0.059897822035  0.000000000000      0.020708193399  0.000000000000     -0.086414894931  0.000000000000
  24   8  0.059897822035  0.000000000000     -0.020708193399  0.000000000000      0.086414894931  0.000000000000
  24   9 -0.025943680838  0.000000000000      0.004582499052  0.000000000000      0.028019320787  0.000000000000
  24  10 -0.004925311544  0.000000000000     -0.082403769361  0.000000000000     -0.114434215718  0.000000000000
  25   1  0.000000000000  0.000000000000      0.000000000000  0.000000000000     -0.616380023220  0.000000000000
  25   2 -0.000000000000  0.000000000000      0.000000000000  0.000000000000     -0.616380023220  0.000000000000
  25   3 -0.000000000000  0.000000000000     -0.000000000000  0.000000000000     -0.252958281067  0.000000000000
  25   4  0.000000000000  0.000000000000     -0.000000000000  0.000000000000     -0.252958281067  0.000000000000
  25   5  0.000000000000  0.000000000000     -0.026281732090  0.000000000000      0.134183439975  0.000000000000
  25   6  0.022760647646  0.000000000000      0.013140866045  0.000000000000      0.134183439975  0.000000000000
  25   7 -0.022760647646  0.000000000000      0.013140866045  0.000000000000      0.134183439975  0.000000000000
  25   8 -0.022760647646  0.000000000000      0.013140866045  0.000000000000      0.134183439975  0.000000000000
  25   9  0.022760647646  0.000000000000      0.013140866045  0.000000000000      0.134183439975  0.000000000000
  25  10  0.000000000000  0.000000000000     -0.026281732090  0.000000000000      0.134183439975  0.000000000000
  26   1  0.008200045307  0.000000000000     -0.021262877931  0.000000000000     -0.000000000000  0.000000000000
  26   2  0.008200045307  0.000000000000     -0.021262877931  0.000000000000     -0.000000000000  0.000000000000
  26   3 -0.238545719437  0.000000000000      0.618553718140  0.000000000000     -0.000000000000  0.000000000000
  26   4 -0.238545719437  0.000000000000      0.618553718140  0.000000000000     -0.000000000000  0.000000000000
  26   5  0.005893563738  0.000000000000     -0.172631493816  0.000000000000      0.069046040923  0.000000000000
  26   6 -0.016729282171  0.000000000000     -0.028343432268  0.000000000000     -0.011462791287  0.000000000000
  26   7  0.119539267547  0.000000000000     -0.080895503779  0.000000000000     -0.057583249636  0.000000000000
  26   8  0.119539267547  0.000000000000     -0.080895503779  0.000000000000     -0.057583249636  0.000000000000
  26   9 -0.016729282171  0.000000000000     -0.028343432268  0.000000000000     -0.011462791287  0.000000000000
  26  10  0.005893563738  0.000000000000     -0.172631493816  0.000000000000      0.069046040923  0.000000000000
  27   1 -0.021262877931  0.000000000000     -0.008200045307  0.000000000000     -0.000000000000  0.000000000000
  27   2 -0.021262877931  0.000000000000     -0.008200045307  0.000000000000     -0.000000000000  0.000000000000
  27   3  0.618553718140  0.000000000000      0.238545719437  0.000000000000     -0.000000000000  0.000000000000
  27   4  0.618553718140  0.000000000000      0.238545719437  0.000000000000     -0.000000000000  0.000000000000
  27   5 -0.015282126092  0.000000000000     -0.066575469005  0.000000000000      0.026627659043  0.000000000000
  27   6 -0.159570187641  0.000000000000     -0.089198314914  0.000000000000     -0.073109454992  0.000000000000
  27   7 -0.107018116130  0.000000000000      0.047070234804  0.000000000000      0.046481795949  0.000000000000
  27   8 -0.107018116130  0.000000000000      0.047070234804  0.000000000000      0.046481795949  0.000000000000
  27   9 -0.159570187641  0.000000000000     -0.089198314914  0.000000000000     -0.073109454992  0.000000000000
  27  10 -0.015282126092  0.000000000000     -0.066575469005  0.000000000000      0.026627659043  0.000000000000
  28   1  0.110947592312  0.000000000000      0.040748802879  0.000000000000     -0.000000000000  0.000000000000
  28   2 -0.110947592312  0.000000000000     -0.040748802879  0.000000000000     -0.000000000000  0.000000000000
  28   3 -0.228070026922  0.000000000000      0.620970889394  0.000000000000     -0.000000000000  0.000000000000
  28   4  0.228070026922  0.000000000000     -0.620970889394  0.000000000000     -0.000000000000  0.000000000000
  28   5 -0.004071986694  0.000000000000      0.161094844384  0.000000000000     -0.048605256492  0.000000000000
  28   6  0.019562202506  0.000000000000      0.024732086282  0.000000000000      0.008842580049  0.000000000000
  28   7 -0.110348504740  0.000000000000      0.072445657087  0.000000000000      0.039762676443  0.000000000000
  28   8  0.110348504740  0.000000000000     -0.072445657087  0.000000000000     -0.039762676443  0.000000000000
  28   9 -0.019562202506  0.000000000000     -0.024732086282  0.000000000000     -0.008842580049  0.000000000000
  28  10  0.004071986694  0.000000000000     -0.161094844384  0.000000000000      0.048605256492  0.000000000000
  29   1 -0.040748802879  0.000000000000      0.110947592312  0.000000000000      0.000000000000  0.000000000000
  29   2  0.040748802879  0.000000000000     -0.110947592312  0.000000000000      0.000000000000  0.000000000000
  29   3 -0.620970889394  0.000000000000     -0.228070026922  0.000000000000      0.000000000000  0.000000000000
  29   4  0.620970889394  0.000000000000      0.228070026922  0.000000000000     -0.000000000000  0.000000000000
  29   5 -0.011086880785  0.000000000000     -0.059166872591  0.000000000000      0.017851725976  0.000000000000
  29   6 -0.147449638887  0.000000000000     -0.082801061792  0.000000000000     -0.051019249868  0.000000000000
  29   7 -0.099736068081  0.000000000000      0.047109645455  0.000000000000      0.033167523892  0.000000000000
  29   8  0.099736068081  0.000000000000     -0.047109645455  0.000000000000     -0.033167523892  0.000000000000
  29   9  0.147449638887  0.000000000000      0.082801061792  0.000000000000      0.051019249868  0.000000000000
  29  10  0.011086880785  0.000000000000      0.059166872591  0.000000000000     -0.017851725976  0.000000000000
  30   1  0.000000000000  0.000000000000     -0.000000000000  0.000000000000     -0.000000000000  0.000000000000
  30   2  0.000000000000  0.000000000000     -0.000000000000  0.000000000000     -0.000000000000  0.000000000000
  30   3  0.000000000000  0.000000000000     -0.000000000000  0.000000000000     -0.704640633317  0.000000000000
  30   4  0.000000000000  0.000000000000      0.000000000000  0.000000000000      0.704640633317  0.000000000000
  30   5 -0.000000000000  0.000000000000      0.029372056518  0.000000000000     -0.017257121875  0.000000000000
  30   6 -0.025436947106  0.000000000000     -0.014686028259  0.000000000000     -0.017257121875  0.000000000000
  30   7  0.025436947106  0.000000000000     -0.014686028259  0.000000000000     -0.017257121875  0.000000000000
  30   8 -0.025436947106  0.000000000000      0.014686028259  0.000000000000      0.017257121875  0.000000000000
  30   9  0.025436947106  0.000000000000      0.014686028259  0.000000000000      0.017257121875  0.000000000000
  30  10  0.000000000000  0.000000000000     -0.029372056518  0.000000000000      0.017257121875  0.000000000000
