 BEGIN header
 Number of ions         10
 Number of branches     30
 Number of wavevectors  1
 Frequencies in         cm-1
 IR intensities in      (D/A)**2/amu
 Raman activities in    A**4 amu**(-1)
 Unit cell vectors (A)
    5.985343   -3.455639    0.000000
    0.000000    6.911279   -0.000000
    0.000000   -0.000000   13.501750
 Fractional Co-ordinates
     1     0.666667    0.333333    0.500000   Al       26.982000
     2     0.333333    0.666667    0.500000   Al       26.982000
     3     0.000000    0.000000    0.414765   Si       28.084999
     4     0.000000    0.000000    0.585235   Si       28.084999
     5     0.000000    0.643741    0.631000   Te      127.599998
     6     0.356259    0.356259    0.631000   Te      127.599998
     7     0.643741    1.000000    0.631000   Te      127.599998
     8     0.356259    1.000000    0.369000   Te      127.599998
     9     0.643741    0.643741    0.369000   Te      127.599998
    10     0.000000    0.356259    0.369000   Te      127.599998
 END header
     q-pt=    1    0.000000  0.000000  0.000000      1.0000000000
       1      -0.016904              0.0000000               0.0000000          
       2      -0.016904              0.0000000               0.0000000          
       3      -0.010719              0.0000000               0.0000000          
       4      68.088000              0.0000000            2326.0608005          
       5      68.088000              0.0000000            2326.0609967          
       6      71.822569              0.0000000               0.0000000          
       7      78.756190              0.1065248               0.0000000          
       8      78.756190              0.1065248               0.0000000          
       9      84.324520              0.0000524               0.0000000          
      10      85.765448              0.0000000             175.6876867          
      11      85.765448              0.0000000             175.6877562          
      12     101.922552              0.0246137               0.0000000          
      13     101.922552              0.0246137               0.0000000          
      14     103.905309              0.0000000               0.0000000          
      15     108.021863              0.0000000             491.7600781          
      16     109.718087              0.0000000             333.3979226          
      17     109.718087              0.0000000             333.3980861          
      18     145.877360              0.0000000           29810.7755781          
      19     193.561779              0.0068644               0.0000000          
      20     207.406484             29.7814895               0.0000000          
      21     207.406484             29.7814895               0.0000000          
      22     210.770000              0.0000000               0.0000000          
      23     220.812779              0.0000000           10325.6024727          
      24     220.812779              0.0000000           10325.6026163          
      25     309.342654              0.3363050               0.0000000          
      26     347.100867              5.5085994               0.0000000          
      27     347.100867              5.5085994               0.0000000          
      28     348.319347              0.0000000           25132.5513162          
      29     348.319347              0.0000000           25132.5514110          
      30     474.529962              0.0000000            5183.2157843          
                        Phonon Eigenvectors
Mode Ion                X                                   Y                                   Z
   1   1 -0.174007687852  0.000000000000      0.016811995270  0.000000000000     -0.000000004674  0.000000000000
   1   2 -0.174007687852  0.000000000000      0.016811995270  0.000000000000     -0.000000004674  0.000000000000
   1   3 -0.179532059371  0.000000000000      0.017345740124  0.000000000000     -0.000000005049  0.000000000000
   1   4 -0.179532059371  0.000000000000      0.017345740124  0.000000000000     -0.000000005049  0.000000000000
   1   5 -0.378993406664  0.000000000000      0.036782646821  0.000000000000     -0.000144187205  0.000000000000
   1   6 -0.380207713114  0.000000000000      0.035915896019  0.000000000000     -0.001220257687  0.000000000000
   1   7 -0.380351187865  0.000000000000      0.037400891517  0.000000000000      0.001364413850  0.000000000000
   1   8 -0.380351187865  0.000000000000      0.037400891517  0.000000000000      0.001364413850  0.000000000000
   1   9 -0.380207713114  0.000000000000      0.035915896019  0.000000000000     -0.001220257687  0.000000000000
   1  10 -0.378993406664  0.000000000000      0.036782646821  0.000000000000     -0.000144187205  0.000000000000
   2   1 -0.016811995270  0.000000000000     -0.174007687852  0.000000000000      0.000000000654  0.000000000000
   2   2 -0.016811995270  0.000000000000     -0.174007687852  0.000000000000      0.000000000654  0.000000000000
   2   3 -0.017345740124  0.000000000000     -0.179532059371  0.000000000000      0.000000000706  0.000000000000
   2   4 -0.017345740124  0.000000000000     -0.179532059371  0.000000000000      0.000000000706  0.000000000000
   2   5 -0.036616976175  0.000000000000     -0.380708131778  0.000000000000      0.001492262255  0.000000000000
   2   6 -0.037483726829  0.000000000000     -0.379493825388  0.000000000000     -0.000870989778  0.000000000000
   2   7 -0.035998731354  0.000000000000     -0.379350350478  0.000000000000     -0.000621268135  0.000000000000
   2   8 -0.035998731354  0.000000000000     -0.379350350478  0.000000000000     -0.000621268135  0.000000000000
   2   9 -0.037483726829  0.000000000000     -0.379493825388  0.000000000000     -0.000870989778  0.000000000000
   2  10 -0.036616976175  0.000000000000     -0.380708131778  0.000000000000      0.001492262255  0.000000000000
   3   1  0.000000004661  0.000000000000     -0.000000001117  0.000000000000     -0.172160280101  0.000000000000
   3   2  0.000000004661  0.000000000000     -0.000000001117  0.000000000000     -0.172160280101  0.000000000000
   3   3  0.000000004809  0.000000000000     -0.000000001153  0.000000000000     -0.185966927304  0.000000000000
   3   4  0.000000004809  0.000000000000     -0.000000001153  0.000000000000     -0.185966927304  0.000000000000
   3   5  0.000000010151  0.000000000000      0.003366518153  0.000000000000     -0.381113779817  0.000000000000
   3   6 -0.002915482178  0.000000000000     -0.001683262714  0.000000000000     -0.381113779797  0.000000000000
   3   7  0.002915502549  0.000000000000     -0.001683262754  0.000000000000     -0.381113779866  0.000000000000
   3   8  0.002915502549  0.000000000000     -0.001683262754  0.000000000000     -0.381113779866  0.000000000000
   3   9 -0.002915482178  0.000000000000     -0.001683262714  0.000000000000     -0.381113779797  0.000000000000
   3  10  0.000000010151  0.000000000000      0.003366518153  0.000000000000     -0.381113779817  0.000000000000
   4   1 -0.055641812933  0.000000000000     -0.094476866255  0.000000000000      0.000000000000  0.000000000000
   4   2  0.055641812933  0.000000000000      0.094476866255  0.000000000000     -0.000000000000  0.000000000000
   4   3 -0.114820640209  0.000000000000      0.067623205940  0.000000000000     -0.000000000000  0.000000000000
   4   4  0.114820640209  0.000000000000     -0.067623205940  0.000000000000     -0.000000000000  0.000000000000
   4   5  0.285012266930  0.000000000000     -0.179646482231  0.000000000000     -0.142415947390  0.000000000000
   4   6  0.294920747516  0.000000000000     -0.162136292680  0.000000000000     -0.138209763520  0.000000000000
   4   7  0.305130776199  0.000000000000     -0.179472383356  0.000000000000      0.280625710910  0.000000000000
   4   8 -0.305130776199  0.000000000000      0.179472383356  0.000000000000     -0.280625710910  0.000000000000
   4   9 -0.294920747516  0.000000000000      0.162136292680  0.000000000000      0.138209763520  0.000000000000
   4  10 -0.285012266930  0.000000000000      0.179646482231  0.000000000000      0.142415947390  0.000000000000
   5   1  0.094476866255  0.000000000000     -0.055641812933  0.000000000000      0.000000000000  0.000000000000
   5   2 -0.094476866255  0.000000000000      0.055641812933  0.000000000000     -0.000000000000  0.000000000000
   5   3 -0.067623205940  0.000000000000     -0.114820640209  0.000000000000     -0.000000000000  0.000000000000
   5   4  0.067623205940  0.000000000000      0.114820640209  0.000000000000     -0.000000000000  0.000000000000
   5   5  0.167856956614  0.000000000000      0.305030260167  0.000000000000      0.241814773908  0.000000000000
   5   6  0.185367146165  0.000000000000      0.295121779581  0.000000000000     -0.244243215298  0.000000000000
   5   7  0.168031055489  0.000000000000      0.284911750898  0.000000000000      0.002428441389  0.000000000000
   5   8 -0.168031055489  0.000000000000     -0.284911750898  0.000000000000     -0.002428441389  0.000000000000
   5   9 -0.185367146165  0.000000000000     -0.295121779581  0.000000000000      0.244243215298  0.000000000000
   5  10 -0.167856956614  0.000000000000     -0.305030260167  0.000000000000     -0.241814773908  0.000000000000
   6   1 -0.000000000000  0.000000000000     -0.000000000000  0.000000000000     -0.246289177939  0.000000000000
   6   2  0.000000000000  0.000000000000      0.000000000000  0.000000000000      0.246289177939  0.000000000000
   6   3 -0.000000000000  0.000000000000      0.000000000000  0.000000000000      0.000000000000  0.000000000000
   6   4  0.000000000000  0.000000000000      0.000000000000  0.000000000000      0.000000000000  0.000000000000
   6   5 -0.382684221794  0.000000000000     -0.000000000000  0.000000000000     -0.000000000000  0.000000000000
   6   6  0.191342110897  0.000000000000     -0.331414257701  0.000000000000     -0.000000000000  0.000000000000
   6   7  0.191342110897  0.000000000000      0.331414257701  0.000000000000      0.000000000000  0.000000000000
   6   8 -0.191342110897  0.000000000000     -0.331414257701  0.000000000000     -0.000000000000  0.000000000000
   6   9 -0.191342110897  0.000000000000      0.331414257701  0.000000000000      0.000000000000  0.000000000000
   6  10  0.382684221794  0.000000000000      0.000000000000  0.000000000000      0.000000000000  0.000000000000
   7   1  0.038910325059  0.000000000000     -0.010574300931  0.000000000000      0.000000000000  0.000000000000
   7   2  0.038910325059  0.000000000000     -0.010574300931  0.000000000000     -0.000000000000  0.000000000000
   7   3 -0.072825906203  0.000000000000      0.019791226278  0.000000000000      0.000000000000  0.000000000000
   7   4 -0.072825906203  0.000000000000      0.019791226278  0.000000000000      0.000000000000  0.000000000000
   7   5 -0.031309687560  0.000000000000     -0.012056630407  0.000000000000     -0.149570888351  0.000000000000
   7   6  0.016541156042  0.000000000000      0.036135443065  0.000000000000     -0.401855008135  0.000000000000
   7   7  0.034351294129  0.000000000000     -0.029400639823  0.000000000000      0.551425896486  0.000000000000
   7   8  0.034351294129  0.000000000000     -0.029400639823  0.000000000000      0.551425896486  0.000000000000
   7   9  0.016541156042  0.000000000000      0.036135443065  0.000000000000     -0.401855008135  0.000000000000
   7  10 -0.031309687560  0.000000000000     -0.012056630407  0.000000000000     -0.149570888351  0.000000000000
   8   1 -0.010574300931  0.000000000000     -0.038910325059  0.000000000000      0.000000000000  0.000000000000
   8   2 -0.010574300931  0.000000000000     -0.038910325059  0.000000000000      0.000000000000  0.000000000000
   8   3  0.019791226278  0.000000000000      0.072825906203  0.000000000000     -0.000000000000  0.000000000000
   8   4  0.019791226278  0.000000000000      0.072825906203  0.000000000000     -0.000000000000  0.000000000000
   8   5  0.008508745630  0.000000000000     -0.044364862634  0.000000000000     -0.550376986896  0.000000000000
   8   6 -0.039683327842  0.000000000000      0.003485980968  0.000000000000      0.404720682427  0.000000000000
   8   7  0.025852755046  0.000000000000      0.021296119055  0.000000000000      0.145656304470  0.000000000000
   8   8  0.025852755046  0.000000000000      0.021296119055  0.000000000000      0.145656304470  0.000000000000
   8   9 -0.039683327842  0.000000000000      0.003485980968  0.000000000000      0.404720682427  0.000000000000
   8  10  0.008508745630  0.000000000000     -0.044364862634  0.000000000000     -0.550376986896  0.000000000000
   9   1  0.000000000000  0.000000000000      0.000000000000  0.000000000000     -0.150123412694  0.000000000000
   9   2 -0.000000000000  0.000000000000     -0.000000000000  0.000000000000     -0.150123412694  0.000000000000
   9   3 -0.000000000000  0.000000000000      0.000000000000  0.000000000000      0.407423306207  0.000000000000
   9   4  0.000000000000  0.000000000000     -0.000000000000  0.000000000000      0.407423306207  0.000000000000
   9   5  0.000000000000  0.000000000000     -0.318845897898  0.000000000000     -0.046479711352  0.000000000000
   9   6  0.276128647472  0.000000000000      0.159422948949  0.000000000000     -0.046479711352  0.000000000000
   9   7 -0.276128647472  0.000000000000      0.159422948949  0.000000000000     -0.046479711352  0.000000000000
   9   8 -0.276128647472  0.000000000000      0.159422948949  0.000000000000     -0.046479711352  0.000000000000
   9   9  0.276128647472  0.000000000000      0.159422948949  0.000000000000     -0.046479711352  0.000000000000
   9  10 -0.000000000000  0.000000000000     -0.318845897898  0.000000000000     -0.046479711352  0.000000000000
  10   1 -0.114531451150  0.000000000000     -0.012255761663  0.000000000000     -0.000000000000  0.000000000000
  10   2  0.114531451150  0.000000000000      0.012255761663  0.000000000000     -0.000000000000  0.000000000000
  10   3  0.013059128801  0.000000000000     -0.122039006094  0.000000000000      0.000000000000  0.000000000000
  10   4 -0.013059128801  0.000000000000      0.122039006094  0.000000000000      0.000000000000  0.000000000000
  10   5 -0.019296148663  0.000000000000      0.208687398683  0.000000000000     -0.484580501342  0.000000000000
  10   6 -0.009290994591  0.000000000000      0.186101126409  0.000000000000      0.197383450570  0.000000000000
  10   7 -0.033853857193  0.000000000000      0.188729544951  0.000000000000      0.287197050772  0.000000000000
  10   8  0.033853857193  0.000000000000     -0.188729544951  0.000000000000     -0.287197050772  0.000000000000
  10   9  0.009290994591  0.000000000000     -0.186101126409  0.000000000000     -0.197383450570  0.000000000000
  10  10  0.019296148663  0.000000000000     -0.208687398683  0.000000000000      0.484580501342  0.000000000000
  11   1 -0.012255761663  0.000000000000      0.114531451150  0.000000000000      0.000000000000  0.000000000000
  11   2  0.012255761663  0.000000000000     -0.114531451150  0.000000000000     -0.000000000000  0.000000000000
  11   3 -0.122039006094  0.000000000000     -0.013059128801  0.000000000000     -0.000000000000  0.000000000000
  11   4  0.122039006094  0.000000000000      0.013059128801  0.000000000000     -0.000000000000  0.000000000000
  11   5  0.180324648013  0.000000000000      0.022331184969  0.000000000000     -0.051853906254  0.000000000000
  11   6  0.202910920286  0.000000000000      0.032336339041  0.000000000000      0.445585977468  0.000000000000
  11   7  0.200282501744  0.000000000000      0.007773476439  0.000000000000     -0.393732071214  0.000000000000
  11   8 -0.200282501744  0.000000000000     -0.007773476439  0.000000000000      0.393732071214  0.000000000000
  11   9 -0.202910920286  0.000000000000     -0.032336339041  0.000000000000     -0.445585977468  0.000000000000
  11  10 -0.180324648013  0.000000000000     -0.022331184969  0.000000000000      0.051853906254  0.000000000000
  12   1  0.034424818600  0.000000000000      0.117826858148  0.000000000000     -0.000000000000  0.000000000000
  12   2  0.034424818600  0.000000000000      0.117826858148  0.000000000000     -0.000000000000  0.000000000000
  12   3 -0.041541779920  0.000000000000     -0.142186294915  0.000000000000      0.000000000000  0.000000000000
  12   4 -0.041541779920  0.000000000000     -0.142186294915  0.000000000000      0.000000000000  0.000000000000
  12   5  0.111497166452  0.000000000000     -0.370976436867  0.000000000000      0.033517360354  0.000000000000
  12   6 -0.379301150446  0.000000000000      0.098262152205  0.000000000000     -0.025239304075  0.000000000000
  12   7  0.272470546575  0.000000000000      0.288686668237  0.000000000000     -0.008278056279  0.000000000000
  12   8  0.272470546575  0.000000000000      0.288686668237  0.000000000000     -0.008278056279  0.000000000000
  12   9 -0.379301150446  0.000000000000      0.098262152205  0.000000000000     -0.025239304075  0.000000000000
  12  10  0.111497166452  0.000000000000     -0.370976436867  0.000000000000      0.033517360354  0.000000000000
  13   1  0.117826858148  0.000000000000     -0.034424818600  0.000000000000      0.000000000000  0.000000000000
  13   2  0.117826858148  0.000000000000     -0.034424818600  0.000000000000      0.000000000000  0.000000000000
  13   3 -0.142186294915  0.000000000000      0.041541779920  0.000000000000     -0.000000000000  0.000000000000
  13   4 -0.142186294915  0.000000000000      0.041541779920  0.000000000000     -0.000000000000  0.000000000000
  13   5  0.381624692584  0.000000000000      0.108386124731  0.000000000000     -0.009792580981  0.000000000000
  13   6 -0.087613896488  0.000000000000     -0.382412192166  0.000000000000     -0.024130595044  0.000000000000
  13   7 -0.278038412520  0.000000000000      0.269359504855  0.000000000000      0.033923176024  0.000000000000
  13   8 -0.278038412520  0.000000000000      0.269359504855  0.000000000000      0.033923176024  0.000000000000
  13   9 -0.087613896488  0.000000000000     -0.382412192166  0.000000000000     -0.024130595044  0.000000000000
  13  10  0.381624692584  0.000000000000      0.108386124731  0.000000000000     -0.009792580981  0.000000000000
  14   1  0.000000000000  0.000000000000      0.000000000000  0.000000000000     -0.000000000000  0.000000000000
  14   2  0.000000000000  0.000000000000      0.000000000000  0.000000000000      0.000000000000  0.000000000000
  14   3 -0.000000000000  0.000000000000     -0.000000000000  0.000000000000     -0.000000000000  0.000000000000
  14   4 -0.000000000000  0.000000000000     -0.000000000000  0.000000000000     -0.000000000000  0.000000000000
  14   5 -0.408248290464  0.000000000000     -0.000000000000  0.000000000000      0.000000000000  0.000000000000
  14   6  0.204124145232  0.000000000000     -0.353553390593  0.000000000000      0.000000000000  0.000000000000
  14   7  0.204124145232  0.000000000000      0.353553390593  0.000000000000      0.000000000000  0.000000000000
  14   8  0.204124145232  0.000000000000      0.353553390593  0.000000000000     -0.000000000000  0.000000000000
  14   9  0.204124145232  0.000000000000     -0.353553390593  0.000000000000     -0.000000000000  0.000000000000
  14  10 -0.408248290464  0.000000000000     -0.000000000000  0.000000000000     -0.000000000000  0.000000000000
  15   1 -0.000000000000  0.000000000000      0.000000000000  0.000000000000     -0.000000000000  0.000000000000
  15   2  0.000000000000  0.000000000000      0.000000000000  0.000000000000      0.000000000000  0.000000000000
  15   3 -0.000000000000  0.000000000000      0.000000000000  0.000000000000     -0.013909394320  0.000000000000
  15   4  0.000000000000  0.000000000000     -0.000000000000  0.000000000000      0.013909394320  0.000000000000
  15   5 -0.000000000000  0.000000000000      0.116396854618  0.000000000000      0.391221099233  0.000000000000
  15   6 -0.100802633020  0.000000000000     -0.058198427309  0.000000000000      0.391221099233  0.000000000000
  15   7  0.100802633020  0.000000000000     -0.058198427309  0.000000000000      0.391221099233  0.000000000000
  15   8 -0.100802633020  0.000000000000      0.058198427309  0.000000000000     -0.391221099233  0.000000000000
  15   9  0.100802633020  0.000000000000      0.058198427309  0.000000000000     -0.391221099233  0.000000000000
  15  10  0.000000000000  0.000000000000     -0.116396854618  0.000000000000     -0.391221099233  0.000000000000
  16   1 -0.065589521965  0.000000000000      0.007297974047  0.000000000000     -0.000000000000  0.000000000000
  16   2  0.065589521965  0.000000000000     -0.007297974047  0.000000000000      0.000000000000  0.000000000000
  16   3  0.015286982958  0.000000000000      0.137389623215  0.000000000000     -0.000000000000  0.000000000000
  16   4 -0.015286982958  0.000000000000     -0.137389623215  0.000000000000     -0.000000000000  0.000000000000
  16   5  0.048276321479  0.000000000000     -0.354317848854  0.000000000000     -0.003864981730  0.000000000000
  16   6 -0.358797181163  0.000000000000      0.198852697093  0.000000000000      0.002304921953  0.000000000000
  16   7  0.323799315574  0.000000000000      0.274803418615  0.000000000000      0.001560059777  0.000000000000
  16   8 -0.323799315574  0.000000000000     -0.274803418615  0.000000000000     -0.001560059777  0.000000000000
  16   9  0.358797181163  0.000000000000     -0.198852697093  0.000000000000     -0.002304921953  0.000000000000
  16  10 -0.048276321479  0.000000000000      0.354317848854  0.000000000000      0.003864981730  0.000000000000
  17   1  0.007297974047  0.000000000000      0.065589521965  0.000000000000     -0.000000000000  0.000000000000
  17   2 -0.007297974047  0.000000000000     -0.065589521965  0.000000000000     -0.000000000000  0.000000000000
  17   3  0.137389623215  0.000000000000     -0.015286982958  0.000000000000     -0.000000000000  0.000000000000
  17   4 -0.137389623215  0.000000000000      0.015286982958  0.000000000000      0.000000000000  0.000000000000
  17   5  0.433876693424  0.000000000000      0.039424017553  0.000000000000      0.000430046378  0.000000000000
  17   6 -0.119293852523  0.000000000000     -0.367649485090  0.000000000000      0.003132149174  0.000000000000
  17   7 -0.195244574046  0.000000000000      0.314947011647  0.000000000000     -0.003562195552  0.000000000000
  17   8  0.195244574046  0.000000000000     -0.314947011647  0.000000000000      0.003562195552  0.000000000000
  17   9  0.119293852523  0.000000000000      0.367649485090  0.000000000000     -0.003132149174  0.000000000000
  17  10 -0.433876693424  0.000000000000     -0.039424017553  0.000000000000     -0.000430046378  0.000000000000
  18   1  0.000000000000  0.000000000000      0.000000000000  0.000000000000      0.000000000000  0.000000000000
  18   2 -0.000000000000  0.000000000000     -0.000000000000  0.000000000000      0.000000000000  0.000000000000
  18   3  0.000000000000  0.000000000000     -0.000000000000  0.000000000000      0.057890670299  0.000000000000
  18   4 -0.000000000000  0.000000000000     -0.000000000000  0.000000000000     -0.057890670299  0.000000000000
  18   5  0.000000000000  0.000000000000      0.390170256161  0.000000000000     -0.115398128111  0.000000000000
  18   6 -0.337897353636  0.000000000000     -0.195085128080  0.000000000000     -0.115398128111  0.000000000000
  18   7  0.337897353636  0.000000000000     -0.195085128080  0.000000000000     -0.115398128111  0.000000000000
  18   8 -0.337897353636  0.000000000000      0.195085128080  0.000000000000      0.115398128111  0.000000000000
  18   9  0.337897353636  0.000000000000      0.195085128080  0.000000000000      0.115398128111  0.000000000000
  18  10 -0.000000000000  0.000000000000     -0.390170256161  0.000000000000      0.115398128111  0.000000000000
  19   1  0.000000000000  0.000000000000      0.000000000000  0.000000000000     -0.241414450756  0.000000000000
  19   2  0.000000000000  0.000000000000      0.000000000000  0.000000000000     -0.241414450756  0.000000000000
  19   3  0.000000000000  0.000000000000     -0.000000000000  0.000000000000      0.493015478155  0.000000000000
  19   4 -0.000000000000  0.000000000000     -0.000000000000  0.000000000000      0.493015478155  0.000000000000
  19   5 -0.000000000000  0.000000000000      0.253945035474  0.000000000000     -0.041595505125  0.000000000000
  19   6 -0.219922851886  0.000000000000     -0.126972517737  0.000000000000     -0.041595505125  0.000000000000
  19   7  0.219922851886  0.000000000000     -0.126972517737  0.000000000000     -0.041595505125  0.000000000000
  19   8  0.219922851886  0.000000000000     -0.126972517737  0.000000000000     -0.041595505125  0.000000000000
  19   9 -0.219922851886  0.000000000000     -0.126972517737  0.000000000000     -0.041595505125  0.000000000000
  19  10 -0.000000000000  0.000000000000      0.253945035474  0.000000000000     -0.041595505125  0.000000000000
  20   1 -0.167254458190  0.000000000000      0.651324619983  0.000000000000      0.000000000000  0.000000000000
  20   2 -0.167254458190  0.000000000000      0.651324619983  0.000000000000     -0.000000000000  0.000000000000
  20   3 -0.001923989523  0.000000000000      0.007492426560  0.000000000000     -0.000000000000  0.000000000000
  20   4 -0.001923989523  0.000000000000      0.007492426560  0.000000000000     -0.000000000000  0.000000000000
  20   5  0.042329385438  0.000000000000     -0.036865457259  0.000000000000     -0.036442816961  0.000000000000
  20   6  0.073096853993  0.000000000000     -0.147076070864  0.000000000000      0.010116972809  0.000000000000
  20   7 -0.037732071433  0.000000000000     -0.118616173441  0.000000000000      0.026325844153  0.000000000000
  20   8 -0.037732071433  0.000000000000     -0.118616173441  0.000000000000      0.026325844153  0.000000000000
  20   9  0.073096853993  0.000000000000     -0.147076070864  0.000000000000      0.010116972809  0.000000000000
  20  10  0.042329385438  0.000000000000     -0.036865457259  0.000000000000     -0.036442816961  0.000000000000
  21   1  0.651324619983  0.000000000000      0.167254458190  0.000000000000      0.000000000000  0.000000000000
  21   2  0.651324619983  0.000000000000      0.167254458190  0.000000000000     -0.000000000000  0.000000000000
  21   3  0.007492426560  0.000000000000      0.001923989523  0.000000000000     -0.000000000000  0.000000000000
  21   4  0.007492426560  0.000000000000      0.001923989523  0.000000000000     -0.000000000000  0.000000000000
  21   5 -0.164839677117  0.000000000000     -0.009466726561  0.000000000000     -0.009358196234  0.000000000000
  21   6 -0.054629063511  0.000000000000      0.021300741995  0.000000000000      0.036239503391  0.000000000000
  21   7 -0.083088960935  0.000000000000     -0.089528183432  0.000000000000     -0.026881307157  0.000000000000
  21   8 -0.083088960935  0.000000000000     -0.089528183432  0.000000000000     -0.026881307157  0.000000000000
  21   9 -0.054629063511  0.000000000000      0.021300741995  0.000000000000      0.036239503391  0.000000000000
  21  10 -0.164839677117  0.000000000000     -0.009466726561  0.000000000000     -0.009358196234  0.000000000000
  22   1  0.000000000000  0.000000000000      0.000000000000  0.000000000000     -0.662828515402  0.000000000000
  22   2 -0.000000000000  0.000000000000      0.000000000000  0.000000000000      0.662828515402  0.000000000000
  22   3  0.000000000000  0.000000000000     -0.000000000000  0.000000000000     -0.000000000000  0.000000000000
  22   4 -0.000000000000  0.000000000000      0.000000000000  0.000000000000     -0.000000000000  0.000000000000
  22   5  0.142195123181  0.000000000000      0.000000000000  0.000000000000      0.000000000000  0.000000000000
  22   6 -0.071097561591  0.000000000000      0.123144588969  0.000000000000      0.000000000000  0.000000000000
  22   7 -0.071097561591  0.000000000000     -0.123144588969  0.000000000000     -0.000000000000  0.000000000000
  22   8  0.071097561591  0.000000000000      0.123144588969  0.000000000000      0.000000000000  0.000000000000
  22   9  0.071097561591  0.000000000000     -0.123144588969  0.000000000000     -0.000000000000  0.000000000000
  22  10 -0.142195123181  0.000000000000     -0.000000000000  0.000000000000      0.000000000000  0.000000000000
  23   1 -0.270723230830  0.000000000000      0.617777221144  0.000000000000      0.000000000000  0.000000000000
  23   2  0.270723230830  0.000000000000     -0.617777221144  0.000000000000     -0.000000000000  0.000000000000
  23   3  0.098364248366  0.000000000000      0.043105323739  0.000000000000     -0.000000000000  0.000000000000
  23   4 -0.098364248366  0.000000000000     -0.043105323739  0.000000000000     -0.000000000000  0.000000000000
  23   5 -0.016227163452  0.000000000000      0.035321643246  0.000000000000      0.047985296954  0.000000000000
  23   6  0.074768823666  0.000000000000      0.045425466529  0.000000000000     -0.118822524982  0.000000000000
  23   7  0.038020997746  0.000000000000     -0.038431281600  0.000000000000      0.070837228028  0.000000000000
  23   8 -0.038020997746  0.000000000000      0.038431281600  0.000000000000     -0.070837228028  0.000000000000
  23   9 -0.074768823666  0.000000000000     -0.045425466529  0.000000000000      0.118822524982  0.000000000000
  23  10  0.016227163452  0.000000000000     -0.035321643246  0.000000000000     -0.047985296954  0.000000000000
  24   1  0.617777221144  0.000000000000      0.270723230830  0.000000000000      0.000000000000  0.000000000000
  24   2 -0.617777221144  0.000000000000     -0.270723230830  0.000000000000     -0.000000000000  0.000000000000
  24   3  0.043105323739  0.000000000000     -0.098364248366  0.000000000000      0.000000000000  0.000000000000
  24   4 -0.043105323739  0.000000000000      0.098364248366  0.000000000000      0.000000000000  0.000000000000
  24   5 -0.007111091129  0.000000000000     -0.080602268759  0.000000000000     -0.109500109455  0.000000000000
  24   6 -0.017214914412  0.000000000000      0.010393718360  0.000000000000      0.013193568557  0.000000000000
  24   7  0.066641833717  0.000000000000     -0.026354107561  0.000000000000      0.096306540898  0.000000000000
  24   8 -0.066641833717  0.000000000000      0.026354107561  0.000000000000     -0.096306540898  0.000000000000
  24   9  0.017214914412  0.000000000000     -0.010393718360  0.000000000000     -0.013193568557  0.000000000000
  24  10  0.007111091129  0.000000000000      0.080602268759  0.000000000000      0.109500109455  0.000000000000
  25   1 -0.000000000000  0.000000000000      0.000000000000  0.000000000000      0.624133689111  0.000000000000
  25   2  0.000000000000  0.000000000000      0.000000000000  0.000000000000      0.624133689111  0.000000000000
  25   3 -0.000000000000  0.000000000000      0.000000000000  0.000000000000      0.237399009703  0.000000000000
  25   4 -0.000000000000  0.000000000000      0.000000000000  0.000000000000      0.237399009703  0.000000000000
  25   5 -0.000000000000  0.000000000000      0.022462091566  0.000000000000     -0.132394878597  0.000000000000
  25   6 -0.019452741918  0.000000000000     -0.011231045783  0.000000000000     -0.132394878597  0.000000000000
  25   7  0.019452741918  0.000000000000     -0.011231045783  0.000000000000     -0.132394878597  0.000000000000
  25   8  0.019452741918  0.000000000000     -0.011231045783  0.000000000000     -0.132394878597  0.000000000000
  25   9 -0.019452741918  0.000000000000     -0.011231045783  0.000000000000     -0.132394878597  0.000000000000
  25  10 -0.000000000000  0.000000000000      0.022462091566  0.000000000000     -0.132394878597  0.000000000000
  26   1 -0.006788261958  0.000000000000      0.022376787749  0.000000000000      0.000000000000  0.000000000000
  26   2 -0.006788261958  0.000000000000      0.022376787749  0.000000000000      0.000000000000  0.000000000000
  26   3  0.192511409523  0.000000000000     -0.634593505149  0.000000000000      0.000000000000  0.000000000000
  26   4  0.192511409523  0.000000000000     -0.634593505149  0.000000000000      0.000000000000  0.000000000000
  26   5 -0.004778136443  0.000000000000      0.176731231943  0.000000000000     -0.070384241147  0.000000000000
  26   6  0.028301990331  0.000000000000      0.034849441637  0.000000000000      0.016700843114  0.000000000000
  26   7 -0.111111307796  0.000000000000      0.077142106644  0.000000000000      0.053683398033  0.000000000000
  26   8 -0.111111307796  0.000000000000      0.077142106644  0.000000000000      0.053683398033  0.000000000000
  26   9  0.028301990331  0.000000000000      0.034849441637  0.000000000000      0.016700843114  0.000000000000
  26  10 -0.004778136443  0.000000000000      0.176731231943  0.000000000000     -0.070384241147  0.000000000000
  27   1  0.022376787749  0.000000000000      0.006788261958  0.000000000000      0.000000000000  0.000000000000
  27   2  0.022376787749  0.000000000000      0.006788261958  0.000000000000      0.000000000000  0.000000000000
  27   3 -0.634593505149  0.000000000000     -0.192511409523  0.000000000000      0.000000000000  0.000000000000
  27   4 -0.634593505149  0.000000000000     -0.192511409523  0.000000000000     -0.000000000000  0.000000000000
  27   5  0.015750621540  0.000000000000      0.053613499496  0.000000000000     -0.021351888038  0.000000000000
  27   6  0.157632411846  0.000000000000      0.086693626269  0.000000000000      0.071630484879  0.000000000000
  27   7  0.115339746839  0.000000000000     -0.052719671857  0.000000000000     -0.050278596841  0.000000000000
  27   8  0.115339746839  0.000000000000     -0.052719671857  0.000000000000     -0.050278596841  0.000000000000
  27   9  0.157632411846  0.000000000000      0.086693626269  0.000000000000      0.071630484879  0.000000000000
  27  10  0.015750621540  0.000000000000      0.053613499496  0.000000000000     -0.021351888038  0.000000000000
  28   1 -0.116092861404  0.000000000000     -0.044021499736  0.000000000000      0.000000000000  0.000000000000
  28   2  0.116092861404  0.000000000000      0.044021499736  0.000000000000      0.000000000000  0.000000000000
  28   3  0.234259314748  0.000000000000     -0.617785271348  0.000000000000      0.000000000000  0.000000000000
  28   4 -0.234259314748  0.000000000000      0.617785271348  0.000000000000     -0.000000000000  0.000000000000
  28   5  0.004233755576  0.000000000000     -0.159582059639  0.000000000000      0.049136653375  0.000000000000
  28   6 -0.017823750810  0.000000000000     -0.023900106125  0.000000000000     -0.008432340100  0.000000000000
  28   7  0.110709020961  0.000000000000     -0.072638722007  0.000000000000     -0.040704313274  0.000000000000
  28   8 -0.110709020961  0.000000000000      0.072638722007  0.000000000000      0.040704313274  0.000000000000
  28   9  0.017823750810  0.000000000000      0.023900106125  0.000000000000      0.008432340100  0.000000000000
  28  10 -0.004233755576  0.000000000000      0.159582059639  0.000000000000     -0.049136653375  0.000000000000
  29   1 -0.044021499736  0.000000000000      0.116092861404  0.000000000000     -0.000000000000  0.000000000000
  29   2  0.044021499736  0.000000000000     -0.116092861404  0.000000000000     -0.000000000000  0.000000000000
  29   3 -0.617785271348  0.000000000000     -0.234259314748  0.000000000000      0.000000000000  0.000000000000
  29   4  0.617785271348  0.000000000000      0.234259314748  0.000000000000      0.000000000000  0.000000000000
  29   5 -0.011165198875  0.000000000000     -0.060512261575  0.000000000000      0.018632232399  0.000000000000
  29   6 -0.146847152389  0.000000000000     -0.082569767962  0.000000000000     -0.051869706279  0.000000000000
  29   7 -0.098108536507  0.000000000000      0.045963003810  0.000000000000      0.033237473880  0.000000000000
  29   8  0.098108536507  0.000000000000     -0.045963003810  0.000000000000     -0.033237473880  0.000000000000
  29   9  0.146847152389  0.000000000000      0.082569767962  0.000000000000      0.051869706279  0.000000000000
  29  10  0.011165198875  0.000000000000      0.060512261575  0.000000000000     -0.018632232399  0.000000000000
  30   1 -0.000000000000  0.000000000000      0.000000000000  0.000000000000      0.000000000000  0.000000000000
  30   2  0.000000000000  0.000000000000      0.000000000000  0.000000000000      0.000000000000  0.000000000000
  30   3 -0.000000000000  0.000000000000     -0.000000000000  0.000000000000     -0.704595769957  0.000000000000
  30   4  0.000000000000  0.000000000000     -0.000000000000  0.000000000000      0.704595769957  0.000000000000
  30   5  0.000000000000  0.000000000000      0.029759202092  0.000000000000     -0.017204366021  0.000000000000
  30   6 -0.025772225008  0.000000000000     -0.014879601046  0.000000000000     -0.017204366021  0.000000000000
  30   7  0.025772225008  0.000000000000     -0.014879601046  0.000000000000     -0.017204366021  0.000000000000
  30   8 -0.025772225008  0.000000000000      0.014879601046  0.000000000000      0.017204366021  0.000000000000
  30   9  0.025772225008  0.000000000000      0.014879601046  0.000000000000      0.017204366021  0.000000000000
  30  10 -0.000000000000  0.000000000000     -0.029759202092  0.000000000000      0.017204366021  0.000000000000
