 BEGIN header
 Number of ions         10
 Number of branches     30
 Number of wavevectors  1
 Frequencies in         cm-1
 IR intensities in      (D/A)**2/amu
 Raman activities in    A**4 amu**(-1)
 Unit cell vectors (A)
    6.127085   -3.537474    0.000000
    0.000000    7.074948    0.000000
    0.000000    0.000000    7.861574
 Fractional Co-ordinates
     1     0.000000    0.000000    0.354156   Si       28.084999
     2     0.000000    0.000000    0.645844   Si       28.084999
     3     0.666667    0.333333    0.500000   Sc       44.956001
     4     0.333333    0.666667    0.500000   Sc       44.956001
     5     1.000000    0.655740    0.736826   Te      127.599998
     6     0.344260    0.344260    0.736826   Te      127.599998
     7     0.655740    0.000000    0.736826   Te      127.599998
     8     0.344260    0.000000    0.263174   Te      127.599998
     9     0.655740    0.655740    0.263174   Te      127.599998
    10     1.000000    0.344260    0.263174   Te      127.599998
 END header
     q-pt=    1    0.000000  0.000000  0.000000      1.0000000000
       1      -0.018169              0.0000000               0.0000000          
       2      -0.012815              0.0000000               0.0000000          
       3      -0.012815              0.0000000               0.0000000          
       4      47.949279              0.0000000               0.0000000          
       5      69.673219              0.0024211               0.0000000          
       6      69.673219              0.0024211               0.0000000          
       7      72.775485              0.0000000             200.4520385          
       8      72.775485              0.0000000             200.4730783          
       9      76.205539              0.0000000               5.2960324          
      10      76.205539              0.0000000               5.3111852          
      11      89.396205              0.0000234               0.0000000          
      12      95.435897              0.0000000               0.0000000          
      13      99.637790              0.0000000            1078.2618180          
      14      99.637790              0.0000000            1078.2681349          
      15     101.825639              0.1450028               0.0000000          
      16     101.825639              0.1450028               0.0000000          
      17     103.343442              0.0000000            4122.3006382          
      18     140.706985              0.0000000           14452.5589091          
      19     166.688871             33.1301256               0.0000000          
      20     166.688871             33.1301256               0.0000000          
      21     173.756907              0.0000000               0.0000000          
      22     191.732627              0.0000000            7745.2936815          
      23     191.732627              0.0000000            7745.4754237          
      24     199.797658              0.0786247               0.0000000          
      25     256.740433              1.1001916               0.0000000          
      26     341.641922              0.0000000             511.3749293          
      27     341.641922              0.0000000             511.4580228          
      28     343.998176             11.0189496               0.0000000          
      29     343.998176             11.0189496               0.0000000          
      30     504.058466              0.0000000              30.2513673          
                        Phonon Eigenvectors
Mode Ion                X                                   Y                                   Z
   1   1 -0.000000001509  0.000000000000      0.000000002194  0.000000000000      0.179212269748  0.000000000000
   1   2 -0.000000001509  0.000000000000      0.000000002194  0.000000000000      0.179212269748  0.000000000000
   1   3 -0.000000001874  0.000000000000      0.000000002725  0.000000000000      0.219038257363  0.000000000000
   1   4 -0.000000001874  0.000000000000      0.000000002725  0.000000000000      0.219038257363  0.000000000000
   1   5 -0.000000003195  0.000000000000     -0.002356103037  0.000000000000      0.374116091789  0.000000000000
   1   6  0.002040445933  0.000000000000      0.001178058498  0.000000000000      0.374116091808  0.000000000000
   1   7 -0.002040452351  0.000000000000      0.001178058514  0.000000000000      0.374116091832  0.000000000000
   1   8 -0.002040452351  0.000000000000      0.001178058514  0.000000000000      0.374116091832  0.000000000000
   1   9  0.002040445933  0.000000000000      0.001178058498  0.000000000000      0.374116091808  0.000000000000
   1  10 -0.000000003195  0.000000000000     -0.002356103037  0.000000000000      0.374116091789  0.000000000000
   2   1 -0.039320144536  0.000000000000      0.171975006778  0.000000000000     -0.000000002514  0.000000000000
   2   2 -0.039320144536  0.000000000000      0.171975006778  0.000000000000     -0.000000002514  0.000000000000
   2   3 -0.048830381358  0.000000000000      0.213570048233  0.000000000000     -0.000000003073  0.000000000000
   2   4 -0.048830381358  0.000000000000      0.213570048233  0.000000000000     -0.000000003073  0.000000000000
   2   5 -0.083237528522  0.000000000000      0.366208379053  0.000000000000     -0.001624930272  0.000000000000
   2   6 -0.082674874982  0.000000000000      0.364381865275  0.000000000000      0.000490710838  0.000000000000
   2   7 -0.084538008998  0.000000000000      0.364807849855  0.000000000000      0.001134203686  0.000000000000
   2   8 -0.084538008998  0.000000000000      0.364807849855  0.000000000000      0.001134203686  0.000000000000
   2   9 -0.082674874982  0.000000000000      0.364381865275  0.000000000000      0.000490710838  0.000000000000
   2  10 -0.083237528522  0.000000000000      0.366208379053  0.000000000000     -0.001624930272  0.000000000000
   3   1 -0.171975006778  0.000000000000     -0.039320144536  0.000000000000     -0.000000000998  0.000000000000
   3   2 -0.171975006778  0.000000000000     -0.039320144536  0.000000000000     -0.000000000998  0.000000000000
   3   3 -0.213570048233  0.000000000000     -0.048830381358  0.000000000000     -0.000000001219  0.000000000000
   3   4 -0.213570048233  0.000000000000     -0.048830381358  0.000000000000     -0.000000001219  0.000000000000
   3   5 -0.364057017102  0.000000000000     -0.083729413133  0.000000000000      0.000371518686  0.000000000000
   3   6 -0.365883530842  0.000000000000     -0.084292066721  0.000000000000     -0.001592988816  0.000000000000
   3   7 -0.365457546239  0.000000000000     -0.082428932648  0.000000000000      0.001221463882  0.000000000000
   3   8 -0.365457546239  0.000000000000     -0.082428932648  0.000000000000      0.001221463882  0.000000000000
   3   9 -0.365883530842  0.000000000000     -0.084292066721  0.000000000000     -0.001592988816  0.000000000000
   3  10 -0.364057017102  0.000000000000     -0.083729413133  0.000000000000      0.000371518686  0.000000000000
   4   1 -0.000000000000  0.000000000000     -0.000000000000  0.000000000000      0.000000000000  0.000000000000
   4   2  0.000000000000  0.000000000000     -0.000000000000  0.000000000000      0.000000000000  0.000000000000
   4   3  0.000000000000  0.000000000000     -0.000000000000  0.000000000000     -0.274232285239  0.000000000000
   4   4  0.000000000000  0.000000000000     -0.000000000000  0.000000000000      0.274232285239  0.000000000000
   4   5 -0.376296272341  0.000000000000     -0.000000000000  0.000000000000     -0.000000000000  0.000000000000
   4   6  0.188148136170  0.000000000000     -0.325882131196  0.000000000000     -0.000000000000  0.000000000000
   4   7  0.188148136170  0.000000000000      0.325882131196  0.000000000000      0.000000000000  0.000000000000
   4   8 -0.188148136170  0.000000000000     -0.325882131196  0.000000000000     -0.000000000000  0.000000000000
   4   9 -0.188148136170  0.000000000000      0.325882131196  0.000000000000     -0.000000000000  0.000000000000
   4  10  0.376296272341  0.000000000000     -0.000000000000  0.000000000000     -0.000000000000  0.000000000000
   5   1  0.031977183859  0.000000000000     -0.135829597727  0.000000000000     -0.000000000000  0.000000000000
   5   2  0.031977183859  0.000000000000     -0.135829597727  0.000000000000     -0.000000000000  0.000000000000
   5   3 -0.033598797668  0.000000000000      0.142717732479  0.000000000000     -0.000000000000  0.000000000000
   5   4 -0.033598797668  0.000000000000      0.142717732479  0.000000000000     -0.000000000000  0.000000000000
   5   5 -0.029063258058  0.000000000000     -0.133441219554  0.000000000000      0.506856396658  0.000000000000
   5   6 -0.094942705432  0.000000000000      0.085416588054  0.000000000000     -0.150089886383  0.000000000000
   5   7  0.127533439460  0.000000000000      0.033040959264  0.000000000000     -0.356766510275  0.000000000000
   5   8  0.127533439460  0.000000000000      0.033040959264  0.000000000000     -0.356766510275  0.000000000000
   5   9 -0.094942705432  0.000000000000      0.085416588054  0.000000000000     -0.150089886383  0.000000000000
   5  10 -0.029063258058  0.000000000000     -0.133441219554  0.000000000000      0.506856396658  0.000000000000
   6   1  0.135829597727  0.000000000000      0.031977183859  0.000000000000      0.000000000000  0.000000000000
   6   2  0.135829597727  0.000000000000      0.031977183859  0.000000000000      0.000000000000  0.000000000000
   6   3 -0.142717732479  0.000000000000     -0.033598797668  0.000000000000     -0.000000000000  0.000000000000
   6   4 -0.142717732479  0.000000000000     -0.033598797668  0.000000000000      0.000000000000  0.000000000000
   6   5 -0.123452104730  0.000000000000      0.031414908705  0.000000000000     -0.119324804439  0.000000000000
   6   6  0.095405702878  0.000000000000      0.097294356079  0.000000000000      0.498612917796  0.000000000000
   6   7  0.043030074087  0.000000000000     -0.125181788813  0.000000000000     -0.379288113357  0.000000000000
   6   8  0.043030074087  0.000000000000     -0.125181788813  0.000000000000     -0.379288113357  0.000000000000
   6   9  0.095405702878  0.000000000000      0.097294356079  0.000000000000      0.498612917796  0.000000000000
   6  10 -0.123452104730  0.000000000000      0.031414908705  0.000000000000     -0.119324804439  0.000000000000
   7   1  0.016423422059  0.000000000000     -0.085974960037  0.000000000000     -0.000000000000  0.000000000000
   7   2 -0.016423422059  0.000000000000      0.085974960037  0.000000000000     -0.000000000000  0.000000000000
   7   3 -0.158896144460  0.000000000000     -0.030353238233  0.000000000000      0.000000000000  0.000000000000
   7   4  0.158896144460  0.000000000000      0.030353238233  0.000000000000      0.000000000000  0.000000000000
   7   5 -0.040819857871  0.000000000000      0.074762843706  0.000000000000     -0.498584199800  0.000000000000
   7   6 -0.081072469402  0.000000000000      0.190447987791  0.000000000000      0.166809790071  0.000000000000
   7   7  0.039240109982  0.000000000000      0.167465199903  0.000000000000      0.331774409729  0.000000000000
   7   8 -0.039240109982  0.000000000000     -0.167465199903  0.000000000000     -0.331774409729  0.000000000000
   7   9  0.081072469402  0.000000000000     -0.190447987791  0.000000000000     -0.166809790071  0.000000000000
   7  10  0.040819857871  0.000000000000     -0.074762843706  0.000000000000      0.498584199800  0.000000000000
   8   1 -0.085974960037  0.000000000000     -0.016423422059  0.000000000000     -0.000000000000  0.000000000000
   8   2  0.085974960037  0.000000000000      0.016423422059  0.000000000000     -0.000000000000  0.000000000000
   8   3 -0.030353238233  0.000000000000      0.158896144460  0.000000000000      0.000000000000  0.000000000000
   8   4  0.030353238233  0.000000000000     -0.158896144460  0.000000000000      0.000000000000  0.000000000000
   8   5  0.213687843894  0.000000000000      0.014281620323  0.000000000000     -0.095242367567  0.000000000000
   8   6  0.098002699809  0.000000000000     -0.025970991207  0.000000000000      0.479407766736  0.000000000000
   8   7  0.120985487697  0.000000000000      0.094341588176  0.000000000000     -0.384165399169  0.000000000000
   8   8 -0.120985487697  0.000000000000     -0.094341588176  0.000000000000      0.384165399169  0.000000000000
   8   9 -0.098002699809  0.000000000000      0.025970991207  0.000000000000     -0.479407766736  0.000000000000
   8  10 -0.213687843894  0.000000000000     -0.014281620323  0.000000000000      0.095242367567  0.000000000000
   9   1  0.000538168900  0.000000000000     -0.157551112239  0.000000000000      0.000000000000  0.000000000000
   9   2 -0.000538168900  0.000000000000      0.157551112239  0.000000000000      0.000000000000  0.000000000000
   9   3  0.106725054713  0.000000000000      0.000364555378  0.000000000000      0.000000000000  0.000000000000
   9   4 -0.106725054713  0.000000000000     -0.000364555378  0.000000000000      0.000000000000  0.000000000000
   9   5 -0.001077883544  0.000000000000      0.415195758434  0.000000000000      0.192938852055  0.000000000000
   9   6  0.041812671676  0.000000000000      0.340317621250  0.000000000000     -0.095898674024  0.000000000000
   9   7 -0.044478974923  0.000000000000      0.340612379439  0.000000000000     -0.097040178032  0.000000000000
   9   8  0.044478974923  0.000000000000     -0.340612379439  0.000000000000      0.097040178032  0.000000000000
   9   9 -0.041812671676  0.000000000000     -0.340317621250  0.000000000000      0.095898674024  0.000000000000
   9  10  0.001077883544  0.000000000000     -0.415195758434  0.000000000000     -0.192938852055  0.000000000000
  10   1  0.157551112239  0.000000000000      0.000538168900  0.000000000000      0.000000000000  0.000000000000
  10   2 -0.157551112239  0.000000000000     -0.000538168900  0.000000000000      0.000000000000  0.000000000000
  10   3 -0.000364555378  0.000000000000      0.106725054713  0.000000000000     -0.000000000000  0.000000000000
  10   4  0.000364555378  0.000000000000     -0.106725054713  0.000000000000      0.000000000000  0.000000000000
  10   5 -0.315554747648  0.000000000000     -0.001418240984  0.000000000000     -0.000659047646  0.000000000000
  10   6 -0.390432884832  0.000000000000     -0.044308796204  0.000000000000      0.167419471080  0.000000000000
  10   7 -0.390138126643  0.000000000000      0.041982850395  0.000000000000     -0.166760423434  0.000000000000
  10   8  0.390138126643  0.000000000000     -0.041982850395  0.000000000000      0.166760423434  0.000000000000
  10   9  0.390432884832  0.000000000000      0.044308796204  0.000000000000     -0.167419471080  0.000000000000
  10  10  0.315554747648  0.000000000000      0.001418240984  0.000000000000      0.000659047646  0.000000000000
  11   1 -0.000000000000  0.000000000000     -0.000000000000  0.000000000000      0.347845288335  0.000000000000
  11   2  0.000000000000  0.000000000000     -0.000000000000  0.000000000000      0.347845288335  0.000000000000
  11   3 -0.000000000000  0.000000000000      0.000000000000  0.000000000000     -0.191870643568  0.000000000000
  11   4  0.000000000000  0.000000000000      0.000000000000  0.000000000000     -0.191870643568  0.000000000000
  11   5  0.000000000000  0.000000000000     -0.337126458997  0.000000000000     -0.020220150448  0.000000000000
  11   6  0.291960077779  0.000000000000      0.168563229499  0.000000000000     -0.020220150448  0.000000000000
  11   7 -0.291960077779  0.000000000000      0.168563229499  0.000000000000     -0.020220150448  0.000000000000
  11   8 -0.291960077779  0.000000000000      0.168563229499  0.000000000000     -0.020220150448  0.000000000000
  11   9  0.291960077779  0.000000000000      0.168563229499  0.000000000000     -0.020220150448  0.000000000000
  11  10  0.000000000000  0.000000000000     -0.337126458997  0.000000000000     -0.020220150448  0.000000000000
  12   1  0.000000000000  0.000000000000     -0.000000000000  0.000000000000     -0.000000000000  0.000000000000
  12   2 -0.000000000000  0.000000000000     -0.000000000000  0.000000000000     -0.000000000000  0.000000000000
  12   3  0.000000000000  0.000000000000     -0.000000000000  0.000000000000      0.000000000000  0.000000000000
  12   4  0.000000000000  0.000000000000      0.000000000000  0.000000000000      0.000000000000  0.000000000000
  12   5  0.408248290464  0.000000000000      0.000000000000  0.000000000000      0.000000000000  0.000000000000
  12   6 -0.204124145232  0.000000000000      0.353553390593  0.000000000000     -0.000000000000  0.000000000000
  12   7 -0.204124145232  0.000000000000     -0.353553390593  0.000000000000      0.000000000000  0.000000000000
  12   8 -0.204124145232  0.000000000000     -0.353553390593  0.000000000000     -0.000000000000  0.000000000000
  12   9 -0.204124145232  0.000000000000      0.353553390593  0.000000000000     -0.000000000000  0.000000000000
  12  10  0.408248290464  0.000000000000      0.000000000000  0.000000000000     -0.000000000000  0.000000000000
  13   1 -0.147356728089  0.000000000000      0.000671287498  0.000000000000     -0.000000000000  0.000000000000
  13   2  0.147356728089  0.000000000000     -0.000671287498  0.000000000000     -0.000000000000  0.000000000000
  13   3 -0.000455369800  0.000000000000     -0.099959859258  0.000000000000     -0.000000000000  0.000000000000
  13   4  0.000455369800  0.000000000000      0.099959859258  0.000000000000      0.000000000000  0.000000000000
  13   5 -0.426700883968  0.000000000000     -0.001519835121  0.000000000000      0.000624791271  0.000000000000
  13   6  0.142043307415  0.000000000000      0.330308459232  0.000000000000      0.118463139529  0.000000000000
  13   7  0.145042944328  0.000000000000     -0.328152605937  0.000000000000     -0.119087930800  0.000000000000
  13   8 -0.145042944328  0.000000000000      0.328152605937  0.000000000000      0.119087930800  0.000000000000
  13   9 -0.142043307415  0.000000000000     -0.330308459232  0.000000000000     -0.118463139529  0.000000000000
  13  10  0.426700883968  0.000000000000      0.001519835121  0.000000000000     -0.000624791271  0.000000000000
  14   1 -0.000671287498  0.000000000000     -0.147356728089  0.000000000000      0.000000000000  0.000000000000
  14   2  0.000671287498  0.000000000000      0.147356728089  0.000000000000     -0.000000000000  0.000000000000
  14   3  0.099959859258  0.000000000000     -0.000455369800  0.000000000000     -0.000000000000  0.000000000000
  14   4 -0.099959859258  0.000000000000      0.000455369800  0.000000000000     -0.000000000000  0.000000000000
  14   5 -0.001943847237  0.000000000000      0.333624462485  0.000000000000     -0.137150174401  0.000000000000
  14   6  0.329884447116  0.000000000000     -0.235119728898  0.000000000000      0.069116172313  0.000000000000
  14   7 -0.328576618053  0.000000000000     -0.238119365811  0.000000000000      0.068034002088  0.000000000000
  14   8  0.328576618053  0.000000000000      0.238119365811  0.000000000000     -0.068034002088  0.000000000000
  14   9 -0.329884447116  0.000000000000      0.235119728898  0.000000000000     -0.069116172313  0.000000000000
  14  10  0.001943847237  0.000000000000     -0.333624462485  0.000000000000      0.137150174401  0.000000000000
  15   1 -0.099899796733  0.000000000000      0.009602040583  0.000000000000     -0.000000000000  0.000000000000
  15   2 -0.099899796733  0.000000000000      0.009602040583  0.000000000000      0.000000000000  0.000000000000
  15   3  0.094060241262  0.000000000000     -0.009040761677  0.000000000000     -0.000000000000  0.000000000000
  15   4  0.094060241262  0.000000000000     -0.009040761677  0.000000000000      0.000000000000  0.000000000000
  15   5  0.364493703331  0.000000000000      0.035431382654  0.000000000000      0.021273676926  0.000000000000
  15   6 -0.154835734726  0.000000000000     -0.334868929329  0.000000000000      0.181042039545  0.000000000000
  15   7 -0.215860492904  0.000000000000      0.300033712953  0.000000000000     -0.202315716470  0.000000000000
  15   8 -0.215860492904  0.000000000000      0.300033712953  0.000000000000     -0.202315716470  0.000000000000
  15   9 -0.154835734726  0.000000000000     -0.334868929329  0.000000000000      0.181042039545  0.000000000000
  15  10  0.364493703331  0.000000000000      0.035431382654  0.000000000000      0.021273676926  0.000000000000
  16   1  0.009602040583  0.000000000000      0.099899796733  0.000000000000     -0.000000000000  0.000000000000
  16   2  0.009602040583  0.000000000000      0.099899796733  0.000000000000      0.000000000000  0.000000000000
  16   3 -0.009040761677  0.000000000000     -0.094060241262  0.000000000000     -0.000000000000  0.000000000000
  16   4 -0.009040761677  0.000000000000     -0.094060241262  0.000000000000     -0.000000000000  0.000000000000
  16   5 -0.035033938468  0.000000000000      0.368628719531  0.000000000000      0.221331703631  0.000000000000
  16   6  0.335266373514  0.000000000000     -0.150700718527  0.000000000000     -0.129089396465  0.000000000000
  16   7 -0.299636268768  0.000000000000     -0.211725476705  0.000000000000     -0.092242307166  0.000000000000
  16   8 -0.299636268768  0.000000000000     -0.211725476705  0.000000000000     -0.092242307166  0.000000000000
  16   9  0.335266373514  0.000000000000     -0.150700718527  0.000000000000     -0.129089396465  0.000000000000
  16  10 -0.035033938468  0.000000000000      0.368628719530  0.000000000000      0.221331703631  0.000000000000
  17   1 -0.000000000000  0.000000000000     -0.000000000000  0.000000000000     -0.024580700244  0.000000000000
  17   2  0.000000000000  0.000000000000     -0.000000000000  0.000000000000      0.024580700244  0.000000000000
  17   3  0.000000000000  0.000000000000      0.000000000000  0.000000000000      0.000000000000  0.000000000000
  17   4 -0.000000000000  0.000000000000      0.000000000000  0.000000000000     -0.000000000000  0.000000000000
  17   5 -0.000000000000  0.000000000000      0.044877564311  0.000000000000      0.405525914437  0.000000000000
  17   6 -0.038865110753  0.000000000000     -0.022438782155  0.000000000000      0.405525914437  0.000000000000
  17   7  0.038865110753  0.000000000000     -0.022438782155  0.000000000000      0.405525914437  0.000000000000
  17   8 -0.038865110753  0.000000000000      0.022438782156  0.000000000000     -0.405525914437  0.000000000000
  17   9  0.038865110753  0.000000000000      0.022438782155  0.000000000000     -0.405525914437  0.000000000000
  17  10  0.000000000000  0.000000000000     -0.044877564311  0.000000000000     -0.405525914437  0.000000000000
  18   1 -0.000000000000  0.000000000000      0.000000000000  0.000000000000      0.059506350382  0.000000000000
  18   2 -0.000000000000  0.000000000000     -0.000000000000  0.000000000000     -0.059506350382  0.000000000000
  18   3 -0.000000000000  0.000000000000      0.000000000000  0.000000000000      0.000000000000  0.000000000000
  18   4  0.000000000000  0.000000000000     -0.000000000000  0.000000000000     -0.000000000000  0.000000000000
  18   5 -0.000000000000  0.000000000000      0.404461468662  0.000000000000     -0.043557453885  0.000000000000
  18   6 -0.350273906713  0.000000000000     -0.202230734331  0.000000000000     -0.043557453885  0.000000000000
  18   7  0.350273906713  0.000000000000     -0.202230734331  0.000000000000     -0.043557453885  0.000000000000
  18   8 -0.350273906713  0.000000000000      0.202230734331  0.000000000000      0.043557453885  0.000000000000
  18   9  0.350273906713  0.000000000000      0.202230734331  0.000000000000      0.043557453885  0.000000000000
  18  10 -0.000000000000  0.000000000000     -0.404461468662  0.000000000000      0.043557453885  0.000000000000
  19   1  0.003659439806  0.000000000000      0.035231925027  0.000000000000      0.000000000000  0.000000000000
  19   2  0.003659439806  0.000000000000      0.035231925027  0.000000000000      0.000000000000  0.000000000000
  19   3  0.066896936308  0.000000000000      0.644062471137  0.000000000000     -0.000000000000  0.000000000000
  19   4  0.066896936308  0.000000000000      0.644062471137  0.000000000000     -0.000000000000  0.000000000000
  19   5 -0.021587397777  0.000000000000     -0.055171241033  0.000000000000     -0.078510038137  0.000000000000
  19   6  0.056411336504  0.000000000000     -0.162804024191  0.000000000000      0.046317122188  0.000000000000
  19   7 -0.075800755131  0.000000000000     -0.176536517963  0.000000000000      0.032192915949  0.000000000000
  19   8 -0.075800755131  0.000000000000     -0.176536517963  0.000000000000      0.032192915949  0.000000000000
  19   9  0.056411336504  0.000000000000     -0.162804024191  0.000000000000      0.046317122188  0.000000000000
  19  10 -0.021587397777  0.000000000000     -0.055171241033  0.000000000000     -0.078510038137  0.000000000000
  20   1  0.035231925027  0.000000000000     -0.003659439806  0.000000000000      0.000000000000  0.000000000000
  20   2  0.035231925027  0.000000000000     -0.003659439806  0.000000000000      0.000000000000  0.000000000000
  20   3  0.644062471137  0.000000000000     -0.066896936308  0.000000000000      0.000000000000  0.000000000000
  20   4  0.644062471137  0.000000000000     -0.066896936308  0.000000000000     -0.000000000000  0.000000000000
  20   5 -0.207836614425  0.000000000000      0.005730479826  0.000000000000      0.008154614274  0.000000000000
  20   6 -0.100203831267  0.000000000000      0.083729214107  0.000000000000      0.063914380342  0.000000000000
  20   7 -0.086471337495  0.000000000000     -0.048482877529  0.000000000000     -0.072068994616  0.000000000000
  20   8 -0.086471337495  0.000000000000     -0.048482877529  0.000000000000     -0.072068994616  0.000000000000
  20   9 -0.100203831267  0.000000000000      0.083729214107  0.000000000000      0.063914380342  0.000000000000
  20  10 -0.207836614425  0.000000000000      0.005730479826  0.000000000000      0.008154614274  0.000000000000
  21   1 -0.000000000000  0.000000000000      0.000000000000  0.000000000000     -0.000000000000  0.000000000000
  21   2  0.000000000000  0.000000000000      0.000000000000  0.000000000000     -0.000000000000  0.000000000000
  21   3 -0.000000000000  0.000000000000     -0.000000000000  0.000000000000      0.651764262393  0.000000000000
  21   4 -0.000000000000  0.000000000000      0.000000000000  0.000000000000     -0.651764262393  0.000000000000
  21   5 -0.158328083703  0.000000000000      0.000000000000  0.000000000000     -0.000000000000  0.000000000000
  21   6  0.079164041852  0.000000000000     -0.137116142620  0.000000000000     -0.000000000000  0.000000000000
  21   7  0.079164041852  0.000000000000      0.137116142620  0.000000000000     -0.000000000000  0.000000000000
  21   8 -0.079164041852  0.000000000000     -0.137116142620  0.000000000000      0.000000000000  0.000000000000
  21   9 -0.079164041852  0.000000000000      0.137116142620  0.000000000000     -0.000000000000  0.000000000000
  21  10  0.158328083703  0.000000000000      0.000000000000  0.000000000000      0.000000000000  0.000000000000
  22   1 -0.064889531884  0.000000000000      0.002800139623  0.000000000000     -0.000000000000  0.000000000000
  22   2  0.064889531884  0.000000000000     -0.002800139623  0.000000000000     -0.000000000000  0.000000000000
  22   3 -0.028730799903  0.000000000000     -0.665798284087  0.000000000000     -0.000000000000  0.000000000000
  22   4  0.028730799903  0.000000000000      0.665798284087  0.000000000000      0.000000000000  0.000000000000
  22   5  0.064146584921  0.000000000000      0.005235096854  0.000000000000      0.005380970179  0.000000000000
  22   6 -0.071485210333  0.000000000000     -0.081075133172  0.000000000000      0.105300168828  0.000000000000
  22   7 -0.078416164515  0.000000000000      0.079540562092  0.000000000000     -0.110681139007  0.000000000000
  22   8  0.078416164515  0.000000000000     -0.079540562092  0.000000000000      0.110681139007  0.000000000000
  22   9  0.071485210333  0.000000000000      0.081075133172  0.000000000000     -0.105300168828  0.000000000000
  22  10 -0.064146584921  0.000000000000     -0.005235096854  0.000000000000     -0.005380970179  0.000000000000
  23   1  0.002800139623  0.000000000000      0.064889531884  0.000000000000     -0.000000000000  0.000000000000
  23   2 -0.002800139623  0.000000000000     -0.064889531884  0.000000000000     -0.000000000000  0.000000000000
  23   3 -0.665798284087  0.000000000000      0.028730799903  0.000000000000     -0.000000000000  0.000000000000
  23   4  0.665798284087  0.000000000000     -0.028730799903  0.000000000000     -0.000000000000  0.000000000000
  23   5 -0.002768079672  0.000000000000      0.121316444873  0.000000000000      0.124696866219  0.000000000000
  23   6  0.083542150355  0.000000000000     -0.014315350381  0.000000000000     -0.067008489981  0.000000000000
  23   7 -0.077073544909  0.000000000000     -0.021246304564  0.000000000000     -0.057688376237  0.000000000000
  23   8  0.077073544909  0.000000000000      0.021246304564  0.000000000000      0.057688376237  0.000000000000
  23   9 -0.083542150355  0.000000000000      0.014315350381  0.000000000000      0.067008489981  0.000000000000
  23  10  0.002768079672  0.000000000000     -0.121316444873  0.000000000000     -0.124696866219  0.000000000000
  24   1 -0.000000000000  0.000000000000      0.000000000000  0.000000000000     -0.459455354444  0.000000000000
  24   2 -0.000000000000  0.000000000000      0.000000000000  0.000000000000     -0.459455354444  0.000000000000
  24   3  0.000000000000  0.000000000000      0.000000000000  0.000000000000      0.365686362149  0.000000000000
  24   4 -0.000000000000  0.000000000000     -0.000000000000  0.000000000000      0.365686362149  0.000000000000
  24   5  0.000000000000  0.000000000000     -0.227430067625  0.000000000000      0.000564160179  0.000000000000
  24   6  0.196960216148  0.000000000000      0.113715033813  0.000000000000      0.000564160179  0.000000000000
  24   7 -0.196960216148  0.000000000000      0.113715033813  0.000000000000      0.000564160179  0.000000000000
  24   8 -0.196960216148  0.000000000000      0.113715033813  0.000000000000      0.000564160179  0.000000000000
  24   9  0.196960216148  0.000000000000      0.113715033813  0.000000000000      0.000564160179  0.000000000000
  24  10  0.000000000000  0.000000000000     -0.227430067625  0.000000000000      0.000564160179  0.000000000000
  25   1 -0.000000000000  0.000000000000     -0.000000000000  0.000000000000     -0.368493412462  0.000000000000
  25   2 -0.000000000000  0.000000000000      0.000000000000  0.000000000000     -0.368493412462  0.000000000000
  25   3  0.000000000000  0.000000000000     -0.000000000000  0.000000000000     -0.530548190541  0.000000000000
  25   4 -0.000000000000  0.000000000000     -0.000000000000  0.000000000000     -0.530548190541  0.000000000000
  25   5 -0.000000000000  0.000000000000     -0.035811037503  0.000000000000      0.162156232550  0.000000000000
  25   6  0.031013268213  0.000000000000      0.017905518751  0.000000000000      0.162156232550  0.000000000000
  25   7 -0.031013268213  0.000000000000      0.017905518751  0.000000000000      0.162156232550  0.000000000000
  25   8 -0.031013268213  0.000000000000      0.017905518751  0.000000000000      0.162156232550  0.000000000000
  25   9  0.031013268213  0.000000000000      0.017905518751  0.000000000000      0.162156232550  0.000000000000
  25  10 -0.000000000000  0.000000000000     -0.035811037503  0.000000000000      0.162156232550  0.000000000000
  26   1  0.018036532456  0.000000000000      0.664272286256  0.000000000000     -0.000000000000  0.000000000000
  26   2 -0.018036532456  0.000000000000     -0.664272286256  0.000000000000      0.000000000000  0.000000000000
  26   3  0.091264399070  0.000000000000     -0.002478039999  0.000000000000     -0.000000000000  0.000000000000
  26   4 -0.091264399070  0.000000000000      0.002478039999  0.000000000000     -0.000000000000  0.000000000000
  26   5  0.000410511488  0.000000000000      0.170517571854  0.000000000000     -0.063705333164  0.000000000000
  26   6  0.070864714195  0.000000000000      0.055795590471  0.000000000000      0.033350671837  0.000000000000
  26   7 -0.063714537409  0.000000000000      0.052141451815  0.000000000000      0.030354661328  0.000000000000
  26   8  0.063714537409  0.000000000000     -0.052141451815  0.000000000000     -0.030354661328  0.000000000000
  26   9 -0.070864714195  0.000000000000     -0.055795590471  0.000000000000     -0.033350671837  0.000000000000
  26  10 -0.000410511488  0.000000000000     -0.170517571854  0.000000000000      0.063705333164  0.000000000000
  27   1 -0.664272286256  0.000000000000      0.018036532456  0.000000000000     -0.000000000000  0.000000000000
  27   2  0.664272286256  0.000000000000     -0.018036532456  0.000000000000     -0.000000000000  0.000000000000
  27   3  0.002478039999  0.000000000000      0.091264399070  0.000000000000      0.000000000000  0.000000000000
  27   4 -0.002478039999  0.000000000000     -0.091264399070  0.000000000000      0.000000000000  0.000000000000
  27   5 -0.015118837572  0.000000000000      0.004629947361  0.000000000000     -0.001729747474  0.000000000000
  27   6 -0.129840818956  0.000000000000     -0.065824255346  0.000000000000     -0.054305563140  0.000000000000
  27   7 -0.133494957612  0.000000000000      0.068754996258  0.000000000000      0.056035310614  0.000000000000
  27   8  0.133494957612  0.000000000000     -0.068754996258  0.000000000000     -0.056035310614  0.000000000000
  27   9  0.129840818956  0.000000000000      0.065824255346  0.000000000000      0.054305563140  0.000000000000
  27  10  0.015118837572  0.000000000000     -0.004629947361  0.000000000000      0.001729747474  0.000000000000
  28   1  0.011920335154  0.000000000000      0.661768358544  0.000000000000     -0.000000000000  0.000000000000
  28   2  0.011920335154  0.000000000000      0.661768358544  0.000000000000      0.000000000000  0.000000000000
  28   3 -0.000860992727  0.000000000000     -0.047798802341  0.000000000000     -0.000000000000  0.000000000000
  28   4 -0.000860992727  0.000000000000     -0.047798802341  0.000000000000      0.000000000000  0.000000000000
  28   5 -0.000109741961  0.000000000000     -0.182183141799  0.000000000000      0.080721798480  0.000000000000
  28   6 -0.078738180602  0.000000000000     -0.051488576032  0.000000000000     -0.041620125956  0.000000000000
  28   7  0.073760852809  0.000000000000     -0.048741633593  0.000000000000     -0.039101672524  0.000000000000
  28   8  0.073760852809  0.000000000000     -0.048741633593  0.000000000000     -0.039101672524  0.000000000000
  28   9 -0.078738180602  0.000000000000     -0.051488576032  0.000000000000     -0.041620125956  0.000000000000
  28  10 -0.000109741961  0.000000000000     -0.182183141799  0.000000000000      0.080721798480  0.000000000000
  29   1  0.661768358544  0.000000000000     -0.011920335154  0.000000000000     -0.000000000000  0.000000000000
  29   2  0.661768358544  0.000000000000     -0.011920335154  0.000000000000     -0.000000000000  0.000000000000
  29   3 -0.047798802341  0.000000000000      0.000860992727  0.000000000000      0.000000000000  0.000000000000
  29   4 -0.047798802341  0.000000000000      0.000860992727  0.000000000000     -0.000000000000  0.000000000000
  29   5 -0.006092425817  0.000000000000      0.003281637875  0.000000000000     -0.001454029767  0.000000000000
  29   6 -0.136786991584  0.000000000000     -0.075346800766  0.000000000000     -0.069180113240  0.000000000000
  29   7 -0.139533934023  0.000000000000      0.077152232645  0.000000000000      0.070634143007  0.000000000000
  29   8 -0.139533934023  0.000000000000      0.077152232645  0.000000000000      0.070634143007  0.000000000000
  29   9 -0.136786991584  0.000000000000     -0.075346800766  0.000000000000     -0.069180113240  0.000000000000
  29  10 -0.006092425817  0.000000000000      0.003281637875  0.000000000000     -0.001454029767  0.000000000000
  30   1 -0.000000000000  0.000000000000     -0.000000000000  0.000000000000     -0.704169570089  0.000000000000
  30   2  0.000000000000  0.000000000000     -0.000000000000  0.000000000000      0.704169570089  0.000000000000
  30   3 -0.000000000000  0.000000000000      0.000000000000  0.000000000000      0.000000000000  0.000000000000
  30   4 -0.000000000000  0.000000000000      0.000000000000  0.000000000000      0.000000000000  0.000000000000
  30   5  0.000000000000  0.000000000000      0.032612746829  0.000000000000     -0.017836692453  0.000000000000
  30   6 -0.028243467241  0.000000000000     -0.016306373415  0.000000000000     -0.017836692453  0.000000000000
  30   7  0.028243467241  0.000000000000     -0.016306373415  0.000000000000     -0.017836692453  0.000000000000
  30   8 -0.028243467241  0.000000000000      0.016306373415  0.000000000000      0.017836692453  0.000000000000
  30   9  0.028243467241  0.000000000000      0.016306373415  0.000000000000      0.017836692453  0.000000000000
  30  10  0.000000000000  0.000000000000     -0.032612746829  0.000000000000      0.017836692453  0.000000000000
