 BEGIN header
 Number of ions         10
 Number of branches     30
 Number of wavevectors  1
 Frequencies in         cm-1
 IR intensities in      (D/A)**2/amu
 Raman activities in    A**4 amu**(-1)
 Unit cell vectors (A)
    6.125262   -3.536421    0.000000
    0.000000    7.072843   -0.000000
    0.000000   -0.000000   14.015413
 Fractional Co-ordinates
     1     0.000000    0.000000    0.418193   Si       28.084999
     2     0.000000    0.000000    0.581807   Si       28.084999
     3     0.666667    0.333333    0.500000   Sc       44.956001
     4     0.333333    0.666667    0.500000   Sc       44.956001
     5     1.000000    0.655852    0.632885   Te      127.599998
     6     0.344148    0.344148    0.632885   Te      127.599998
     7     0.655852    0.000000    0.632885   Te      127.599998
     8     0.344148    0.000000    0.367115   Te      127.599998
     9     0.655852    0.655852    0.367115   Te      127.599998
    10     1.000000    0.344148    0.367115   Te      127.599998
 END header
     q-pt=    1    0.000000  0.000000  0.000000      1.0000000000
       1      -0.016545              0.0000000               0.0000000          
       2      -0.016545              0.0000000               0.0000000          
       3      -0.010488              0.0000000               0.0000000          
       4      46.026491              0.0000000               0.0000000          
       5      69.753744              0.0007008               0.0000000          
       6      69.753744              0.0007008               0.0000000          
       7      72.911471              0.0000000             215.7003273          
       8      72.911471              0.0000000             215.7341126          
       9      76.135838              0.0000000              13.6698324          
      10      76.135838              0.0000000              13.7695609          
      11      89.628589              0.0003796               0.0000000          
      12      95.414633              0.0000000               0.0000000          
      13      99.553033              0.0000000            1011.6563469          
      14      99.553033              0.0000000            1011.6565229          
      15     101.572336              0.1568442               0.0000000          
      16     101.572336              0.1568442               0.0000000          
      17     103.194670              0.0000000            3656.7715336          
      18     140.765061              0.0000000           14192.3199864          
      19     165.879661             33.6077088               0.0000000          
      20     165.879661             33.6077088               0.0000000          
      21     173.019790              0.0000000               0.0000000          
      22     192.332204              0.0000000            7966.3028028          
      23     192.332204              0.0000000            7966.3046956          
      24     200.868380              0.0160843               0.0000000          
      25     259.904612              0.2183498               0.0000000          
      26     342.854750              0.0000000             426.7474729          
      27     342.854750              0.0000000             426.7826920          
      28     345.000434             10.7664433               0.0000000          
      29     345.000434             10.7664433               0.0000000          
      30     504.391246              0.0000000              32.4840662          
                        Phonon Eigenvectors
Mode Ion                X                                   Y                                   Z
   1   1 -0.175893204396  0.000000000000     -0.013381192855  0.000000000000      0.000000001004  0.000000000000
   1   2 -0.175893204396  0.000000000000     -0.013381192855  0.000000000000      0.000000001004  0.000000000000
   1   3 -0.218562698031  0.000000000000     -0.016627303046  0.000000000000      0.000000001232  0.000000000000
   1   4 -0.218562698031  0.000000000000     -0.016627303046  0.000000000000      0.000000001232  0.000000000000
   1   5 -0.372393272813  0.000000000000     -0.028491679093  0.000000000000      0.000131914465  0.000000000000
   1   6 -0.374056526410  0.000000000000     -0.029290346547  0.000000000000     -0.001567609779  0.000000000000
   1   7 -0.373916565947  0.000000000000     -0.027450592934  0.000000000000      0.001435701615  0.000000000000
   1   8 -0.373916565947  0.000000000000     -0.027450592934  0.000000000000      0.001435701615  0.000000000000
   1   9 -0.374056526410  0.000000000000     -0.029290346547  0.000000000000     -0.001567609779  0.000000000000
   1  10 -0.372393272813  0.000000000000     -0.028491679093  0.000000000000      0.000131914465  0.000000000000
   2   1 -0.013381192855  0.000000000000      0.175893204396  0.000000000000      0.000000008270  0.000000000000
   2   2 -0.013381192855  0.000000000000      0.175893204396  0.000000000000      0.000000008270  0.000000000000
   2   3 -0.016627303046  0.000000000000      0.218562698031  0.000000000000      0.000000010145  0.000000000000
   2   4 -0.016627303046  0.000000000000      0.218562698031  0.000000000000      0.000000010145  0.000000000000
   2   5 -0.028330066636  0.000000000000      0.374517637202  0.000000000000     -0.001733945343  0.000000000000
   2   6 -0.027531399077  0.000000000000      0.372854383743  0.000000000000      0.000752759161  0.000000000000
   2   7 -0.029371152862  0.000000000000      0.372994344226  0.000000000000      0.000981238078  0.000000000000
   2   8 -0.029371152862  0.000000000000      0.372994344226  0.000000000000      0.000981238078  0.000000000000
   2   9 -0.027531399077  0.000000000000      0.372854383743  0.000000000000      0.000752759161  0.000000000000
   2  10 -0.028330066636  0.000000000000      0.374517637202  0.000000000000     -0.001733945343  0.000000000000
   3   1  0.000000001606  0.000000000000     -0.000000008058  0.000000000000      0.178840429315  0.000000000000
   3   2  0.000000001606  0.000000000000     -0.000000008058  0.000000000000      0.178840429315  0.000000000000
   3   3  0.000000001996  0.000000000000     -0.000000010013  0.000000000000      0.219396507994  0.000000000000
   3   4  0.000000001996  0.000000000000     -0.000000010013  0.000000000000      0.219396507994  0.000000000000
   3   5  0.000000003401  0.000000000000     -0.002139466153  0.000000000000      0.374106732353  0.000000000000
   3   6  0.001852820553  0.000000000000      0.001069707422  0.000000000000      0.374106732247  0.000000000000
   3   7 -0.001852813723  0.000000000000      0.001069707405  0.000000000000      0.374106732220  0.000000000000
   3   8 -0.001852813723  0.000000000000      0.001069707405  0.000000000000      0.374106732220  0.000000000000
   3   9  0.001852820553  0.000000000000      0.001069707422  0.000000000000      0.374106732247  0.000000000000
   3  10  0.000000003401  0.000000000000     -0.002139466153  0.000000000000      0.374106732353  0.000000000000
   4   1 -0.000000000000  0.000000000000      0.000000000000  0.000000000000     -0.000000000000  0.000000000000
   4   2  0.000000000000  0.000000000000     -0.000000000000  0.000000000000     -0.000000000000  0.000000000000
   4   3 -0.000000000000  0.000000000000      0.000000000000  0.000000000000      0.277998146065  0.000000000000
   4   4 -0.000000000000  0.000000000000     -0.000000000000  0.000000000000     -0.277998146065  0.000000000000
   4   5  0.375374049354  0.000000000000     -0.000000000000  0.000000000000      0.000000000000  0.000000000000
   4   6 -0.187687024677  0.000000000000      0.325083462662  0.000000000000      0.000000000000  0.000000000000
   4   7 -0.187687024677  0.000000000000     -0.325083462662  0.000000000000     -0.000000000000  0.000000000000
   4   8  0.187687024677  0.000000000000      0.325083462662  0.000000000000      0.000000000000  0.000000000000
   4   9  0.187687024677  0.000000000000     -0.325083462662  0.000000000000     -0.000000000000  0.000000000000
   4  10 -0.375374049354  0.000000000000      0.000000000000  0.000000000000      0.000000000000  0.000000000000
   5   1  0.080381998845  0.000000000000      0.112241127767  0.000000000000      0.000000000000  0.000000000000
   5   2  0.080381998845  0.000000000000      0.112241127767  0.000000000000      0.000000000000  0.000000000000
   5   3 -0.084546618499  0.000000000000     -0.118056380105  0.000000000000     -0.000000000000  0.000000000000
   5   4 -0.084546618499  0.000000000000     -0.118056380105  0.000000000000     -0.000000000000  0.000000000000
   5   5 -0.071471331936  0.000000000000      0.108050590364  0.000000000000     -0.425447675885  0.000000000000
   5   6  0.130169265580  0.000000000000      0.016618504595  0.000000000000      0.476589919052  0.000000000000
   5   7 -0.049833542175  0.000000000000     -0.112291332404  0.000000000000     -0.051142243168  0.000000000000
   5   8 -0.049833542175  0.000000000000     -0.112291332404  0.000000000000     -0.051142243168  0.000000000000
   5   9  0.130169265580  0.000000000000      0.016618504595  0.000000000000      0.476589919052  0.000000000000
   5  10 -0.071471331936  0.000000000000      0.108050590364  0.000000000000     -0.425447675885  0.000000000000
   6   1  0.112241127767  0.000000000000     -0.080381998845  0.000000000000     -0.000000000000  0.000000000000
   6   2  0.112241127767  0.000000000000     -0.080381998845  0.000000000000     -0.000000000000  0.000000000000
   6   3 -0.118056380105  0.000000000000      0.084546618499  0.000000000000     -0.000000000000  0.000000000000
   6   4 -0.118056380105  0.000000000000      0.084546618499  0.000000000000      0.000000000000  0.000000000000
   6   5 -0.099798748661  0.000000000000     -0.077380926249  0.000000000000      0.304686305918  0.000000000000
   6   6 -0.008366662892  0.000000000000      0.124259671268  0.000000000000      0.216105342338  0.000000000000
   6   7  0.120543174107  0.000000000000     -0.055743136488  0.000000000000     -0.520791648256  0.000000000000
   6   8  0.120543174107  0.000000000000     -0.055743136488  0.000000000000     -0.520791648256  0.000000000000
   6   9 -0.008366662892  0.000000000000      0.124259671268  0.000000000000      0.216105342338  0.000000000000
   6  10 -0.099798748661  0.000000000000     -0.077380926249  0.000000000000      0.304686305918  0.000000000000
   7   1 -0.089573229415  0.000000000000     -0.014837844164  0.000000000000     -0.000000000000  0.000000000000
   7   2  0.089573229415  0.000000000000      0.014837844164  0.000000000000     -0.000000000000  0.000000000000
   7   3 -0.026109215474  0.000000000000      0.157616343837  0.000000000000     -0.000000000000  0.000000000000
   7   4  0.026109215474  0.000000000000     -0.157616343837  0.000000000000      0.000000000000  0.000000000000
   7   5  0.216659633798  0.000000000000      0.013421723048  0.000000000000     -0.082661678687  0.000000000000
   7   6  0.105204244876  0.000000000000     -0.028459036824  0.000000000000      0.473488562833  0.000000000000
   7   7  0.124662137358  0.000000000000      0.089004541307  0.000000000000     -0.390826884146  0.000000000000
   7   8 -0.124662137358  0.000000000000     -0.089004541307  0.000000000000      0.390826884146  0.000000000000
   7   9 -0.105204244876  0.000000000000      0.028459036824  0.000000000000     -0.473488562833  0.000000000000
   7  10 -0.216659633798  0.000000000000     -0.013421723048  0.000000000000      0.082661678687  0.000000000000
   8   1 -0.014837844164  0.000000000000      0.089573229415  0.000000000000      0.000000000000  0.000000000000
   8   2  0.014837844164  0.000000000000     -0.089573229415  0.000000000000      0.000000000000  0.000000000000
   8   3  0.157616343837  0.000000000000      0.026109215474  0.000000000000     -0.000000000000  0.000000000000
   8   4 -0.157616343837  0.000000000000     -0.026109215474  0.000000000000     -0.000000000000  0.000000000000
   8   5  0.035889761973  0.000000000000     -0.081024376890  0.000000000000      0.499012755978  0.000000000000
   8   6  0.077770521845  0.000000000000     -0.192479765812  0.000000000000     -0.177919264327  0.000000000000
   8   7 -0.039693056286  0.000000000000     -0.173021873330  0.000000000000     -0.321093491651  0.000000000000
   8   8  0.039693056286  0.000000000000      0.173021873330  0.000000000000      0.321093491651  0.000000000000
   8   9 -0.077770521845  0.000000000000      0.192479765812  0.000000000000      0.177919264327  0.000000000000
   8  10 -0.035889761973  0.000000000000      0.081024376890  0.000000000000     -0.499012755978  0.000000000000
   9   1 -0.150733353056  0.000000000000      0.033858756008  0.000000000000     -0.000000000000  0.000000000000
   9   2  0.150733353056  0.000000000000     -0.033858756008  0.000000000000     -0.000000000000  0.000000000000
   9   3 -0.023784289148  0.000000000000     -0.105883560890  0.000000000000      0.000000000000  0.000000000000
   9   4  0.023784289148  0.000000000000      0.105883560890  0.000000000000      0.000000000000  0.000000000000
   9   5  0.308644886491  0.000000000000     -0.090248734529  0.000000000000     -0.043798560463  0.000000000000
   9   6  0.369431983478  0.000000000000     -0.034234477146  0.000000000000     -0.146961515186  0.000000000000
   9   7  0.387548204853  0.000000000000     -0.114884776050  0.000000000000      0.190760075649  0.000000000000
   9   8 -0.387548204853  0.000000000000      0.114884776050  0.000000000000     -0.190760075649  0.000000000000
   9   9 -0.369431983478  0.000000000000      0.034234477146  0.000000000000      0.146961515186  0.000000000000
   9  10 -0.308644886491  0.000000000000      0.090248734529  0.000000000000      0.043798560463  0.000000000000
  10   1 -0.033858756008  0.000000000000     -0.150733353056  0.000000000000     -0.000000000000  0.000000000000
  10   2  0.033858756008  0.000000000000      0.150733353056  0.000000000000     -0.000000000000  0.000000000000
  10   3  0.105883560890  0.000000000000     -0.023784289148  0.000000000000      0.000000000000  0.000000000000
  10   4 -0.105883560890  0.000000000000      0.023784289148  0.000000000000      0.000000000000  0.000000000000
  10   5  0.069329923954  0.000000000000      0.401771830056  0.000000000000      0.194983651379  0.000000000000
  10   6  0.125344181337  0.000000000000      0.340984733070  0.000000000000     -0.135422491699  0.000000000000
  10   7  0.044693882433  0.000000000000      0.322868511695  0.000000000000     -0.059561159680  0.000000000000
  10   8 -0.044693882433  0.000000000000     -0.322868511695  0.000000000000      0.059561159680  0.000000000000
  10   9 -0.125344181337  0.000000000000     -0.340984733070  0.000000000000      0.135422491699  0.000000000000
  10  10 -0.069329923954  0.000000000000     -0.401771830056  0.000000000000     -0.194983651379  0.000000000000
  11   1  0.000000000000  0.000000000000     -0.000000000000  0.000000000000     -0.346276122625  0.000000000000
  11   2 -0.000000000000  0.000000000000     -0.000000000000  0.000000000000     -0.346276122625  0.000000000000
  11   3 -0.000000000000  0.000000000000      0.000000000000  0.000000000000      0.193149009827  0.000000000000
  11   4  0.000000000000  0.000000000000     -0.000000000000  0.000000000000      0.193149009827  0.000000000000
  11   5 -0.000000000000  0.000000000000      0.337472432729  0.000000000000      0.019350954733  0.000000000000
  11   6 -0.292259699820  0.000000000000     -0.168736216364  0.000000000000      0.019350954733  0.000000000000
  11   7  0.292259699820  0.000000000000     -0.168736216364  0.000000000000      0.019350954733  0.000000000000
  11   8  0.292259699820  0.000000000000     -0.168736216364  0.000000000000      0.019350954733  0.000000000000
  11   9 -0.292259699820  0.000000000000     -0.168736216364  0.000000000000      0.019350954733  0.000000000000
  11  10 -0.000000000000  0.000000000000      0.337472432729  0.000000000000      0.019350954733  0.000000000000
  12   1 -0.000000000000  0.000000000000     -0.000000000000  0.000000000000     -0.000000000000  0.000000000000
  12   2 -0.000000000000  0.000000000000      0.000000000000  0.000000000000     -0.000000000000  0.000000000000
  12   3  0.000000000000  0.000000000000     -0.000000000000  0.000000000000      0.000000000000  0.000000000000
  12   4 -0.000000000000  0.000000000000      0.000000000000  0.000000000000      0.000000000000  0.000000000000
  12   5  0.408248290464  0.000000000000      0.000000000000  0.000000000000     -0.000000000000  0.000000000000
  12   6 -0.204124145232  0.000000000000      0.353553390593  0.000000000000      0.000000000000  0.000000000000
  12   7 -0.204124145232  0.000000000000     -0.353553390593  0.000000000000      0.000000000000  0.000000000000
  12   8 -0.204124145232  0.000000000000     -0.353553390593  0.000000000000     -0.000000000000  0.000000000000
  12   9 -0.204124145232  0.000000000000      0.353553390593  0.000000000000      0.000000000000  0.000000000000
  12  10  0.408248290464  0.000000000000     -0.000000000000  0.000000000000     -0.000000000000  0.000000000000
  13   1  0.019002127316  0.000000000000      0.147126012728  0.000000000000      0.000000000000  0.000000000000
  13   2 -0.019002127316  0.000000000000     -0.147126012728  0.000000000000     -0.000000000000  0.000000000000
  13   3 -0.099338228825  0.000000000000      0.012830074278  0.000000000000     -0.000000000000  0.000000000000
  13   4  0.099338228825  0.000000000000     -0.012830074278  0.000000000000      0.000000000000  0.000000000000
  13   5  0.054472220700  0.000000000000     -0.333909862142  0.000000000000      0.132211852860  0.000000000000
  13   6 -0.345940014704  0.000000000000      0.190578910509  0.000000000000     -0.080894074200  0.000000000000
  13   7  0.308486704114  0.000000000000      0.275101692030  0.000000000000     -0.051317778660  0.000000000000
  13   8 -0.308486704114  0.000000000000     -0.275101692030  0.000000000000      0.051317778660  0.000000000000
  13   9  0.345940014704  0.000000000000     -0.190578910509  0.000000000000      0.080894074200  0.000000000000
  13  10 -0.054472220700  0.000000000000      0.333909862142  0.000000000000     -0.132211852860  0.000000000000
  14   1 -0.147126012728  0.000000000000      0.019002127316  0.000000000000     -0.000000000000  0.000000000000
  14   2  0.147126012728  0.000000000000     -0.019002127316  0.000000000000     -0.000000000000  0.000000000000
  14   3 -0.012830074278  0.000000000000     -0.099338228825  0.000000000000      0.000000000000  0.000000000000
  14   4  0.012830074278  0.000000000000      0.099338228825  0.000000000000     -0.000000000000  0.000000000000
  14   5 -0.421757022406  0.000000000000     -0.043126280627  0.000000000000      0.017075882192  0.000000000000
  14   6  0.102731750245  0.000000000000      0.357285954777  0.000000000000      0.105960882162  0.000000000000
  14   7  0.187254531765  0.000000000000     -0.297140764040  0.000000000000     -0.123036764354  0.000000000000
  14   8 -0.187254531765  0.000000000000      0.297140764040  0.000000000000      0.123036764354  0.000000000000
  14   9 -0.102731750245  0.000000000000     -0.357285954777  0.000000000000     -0.105960882162  0.000000000000
  14  10  0.421757022406  0.000000000000      0.043126280627  0.000000000000     -0.017075882192  0.000000000000
  15   1  0.077331013465  0.000000000000     -0.066288723264  0.000000000000      0.000000000000  0.000000000000
  15   2  0.077331013465  0.000000000000     -0.066288723264  0.000000000000      0.000000000000  0.000000000000
  15   3 -0.073415355176  0.000000000000      0.062932191685  0.000000000000     -0.000000000000  0.000000000000
  15   4 -0.073415355176  0.000000000000      0.062932191685  0.000000000000     -0.000000000000  0.000000000000
  15   5 -0.278906198469  0.000000000000     -0.242105611303  0.000000000000     -0.140870042423  0.000000000000
  15   6 -0.066259799750  0.000000000000      0.361851935400  0.000000000000     -0.071884123288  0.000000000000
  15   7  0.350459579142  0.000000000000     -0.124284021265  0.000000000000      0.212754165711  0.000000000000
  15   8  0.350459579142  0.000000000000     -0.124284021265  0.000000000000      0.212754165710  0.000000000000
  15   9 -0.066259799750  0.000000000000      0.361851935400  0.000000000000     -0.071884123288  0.000000000000
  15  10 -0.278906198469  0.000000000000     -0.242105611303  0.000000000000     -0.140870042423  0.000000000000
  16   1  0.066288723264  0.000000000000      0.077331013465  0.000000000000     -0.000000000000  0.000000000000
  16   2  0.066288723264  0.000000000000      0.077331013465  0.000000000000      0.000000000000  0.000000000000
  16   3 -0.062932191685  0.000000000000     -0.073415355176  0.000000000000     -0.000000000000  0.000000000000
  16   4 -0.062932191685  0.000000000000     -0.073415355176  0.000000000000      0.000000000000  0.000000000000
  16   5 -0.239080479857  0.000000000000      0.282435252417  0.000000000000      0.164335992775  0.000000000000
  16   6  0.364877066845  0.000000000000      0.069788853698  0.000000000000     -0.204165031758  0.000000000000
  16   7 -0.121258889820  0.000000000000     -0.346930525194  0.000000000000      0.039829038983  0.000000000000
  16   8 -0.121258889820  0.000000000000     -0.346930525194  0.000000000000      0.039829038983  0.000000000000
  16   9  0.364877066845  0.000000000000      0.069788853698  0.000000000000     -0.204165031758  0.000000000000
  16  10 -0.239080479857  0.000000000000      0.282435252417  0.000000000000      0.164335992775  0.000000000000
  17   1 -0.000000000000  0.000000000000      0.000000000000  0.000000000000     -0.024115942271  0.000000000000
  17   2 -0.000000000000  0.000000000000     -0.000000000000  0.000000000000      0.024115942271  0.000000000000
  17   3  0.000000000000  0.000000000000     -0.000000000000  0.000000000000     -0.000000000000  0.000000000000
  17   4  0.000000000000  0.000000000000      0.000000000000  0.000000000000     -0.000000000000  0.000000000000
  17   5  0.000000000000  0.000000000000      0.047822806029  0.000000000000      0.405198453024  0.000000000000
  17   6 -0.041415764902  0.000000000000     -0.023911403015  0.000000000000      0.405198453024  0.000000000000
  17   7  0.041415764902  0.000000000000     -0.023911403015  0.000000000000      0.405198453024  0.000000000000
  17   8 -0.041415764902  0.000000000000      0.023911403015  0.000000000000     -0.405198453024  0.000000000000
  17   9  0.041415764902  0.000000000000      0.023911403015  0.000000000000     -0.405198453024  0.000000000000
  17  10  0.000000000000  0.000000000000     -0.047822806029  0.000000000000     -0.405198453024  0.000000000000
  18   1 -0.000000000000  0.000000000000      0.000000000000  0.000000000000      0.060479021072  0.000000000000
  18   2  0.000000000000  0.000000000000     -0.000000000000  0.000000000000     -0.060479021072  0.000000000000
  18   3 -0.000000000000  0.000000000000      0.000000000000  0.000000000000     -0.000000000000  0.000000000000
  18   4  0.000000000000  0.000000000000      0.000000000000  0.000000000000      0.000000000000  0.000000000000
  18   5  0.000000000000  0.000000000000      0.404086558653  0.000000000000     -0.046491746072  0.000000000000
  18   6 -0.349949225121  0.000000000000     -0.202043279326  0.000000000000     -0.046491746072  0.000000000000
  18   7  0.349949225121  0.000000000000     -0.202043279326  0.000000000000     -0.046491746072  0.000000000000
  18   8 -0.349949225121  0.000000000000      0.202043279326  0.000000000000      0.046491746072  0.000000000000
  18   9  0.349949225121  0.000000000000      0.202043279326  0.000000000000      0.046491746072  0.000000000000
  18  10  0.000000000000  0.000000000000     -0.404086558653  0.000000000000      0.046491746072  0.000000000000
  19   1 -0.036130419871  0.000000000000      0.003051192363  0.000000000000      0.000000000000  0.000000000000
  19   2 -0.036130419871  0.000000000000      0.003051192363  0.000000000000      0.000000000000  0.000000000000
  19   3 -0.645117822805  0.000000000000      0.054479814551  0.000000000000      0.000000000000  0.000000000000
  19   4 -0.645117822805  0.000000000000      0.054479814551  0.000000000000     -0.000000000000  0.000000000000
  19   5  0.208548553400  0.000000000000     -0.004669689972  0.000000000000     -0.006596363147  0.000000000000
  19   6  0.099213021958  0.000000000000     -0.080736699196  0.000000000000     -0.064347271229  0.000000000000
  19   7  0.088004825301  0.000000000000      0.051984153181  0.000000000000      0.070943634376  0.000000000000
  19   8  0.088004825301  0.000000000000      0.051984153181  0.000000000000      0.070943634376  0.000000000000
  19   9  0.099213021958  0.000000000000     -0.080736699196  0.000000000000     -0.064347271229  0.000000000000
  19  10  0.208548553400  0.000000000000     -0.004669689972  0.000000000000     -0.006596363147  0.000000000000
  20   1  0.003051192363  0.000000000000      0.036130419871  0.000000000000     -0.000000000000  0.000000000000
  20   2  0.003051192363  0.000000000000      0.036130419871  0.000000000000     -0.000000000000  0.000000000000
  20   3  0.054479814551  0.000000000000      0.645117822805  0.000000000000     -0.000000000000  0.000000000000
  20   4  0.054479814551  0.000000000000      0.645117822805  0.000000000000      0.000000000000  0.000000000000
  20   5 -0.017611800686  0.000000000000     -0.055295713706  0.000000000000     -0.078110240770  0.000000000000
  20   6  0.058455208538  0.000000000000     -0.164631245148  0.000000000000      0.044767738443  0.000000000000
  20   7 -0.074265643839  0.000000000000     -0.175839441804  0.000000000000      0.033342502327  0.000000000000
  20   8 -0.074265643839  0.000000000000     -0.175839441804  0.000000000000      0.033342502327  0.000000000000
  20   9  0.058455208538  0.000000000000     -0.164631245148  0.000000000000      0.044767738443  0.000000000000
  20  10 -0.017611800686  0.000000000000     -0.055295713706  0.000000000000     -0.078110240770  0.000000000000
  21   1  0.000000000000  0.000000000000      0.000000000000  0.000000000000     -0.000000000000  0.000000000000
  21   2  0.000000000000  0.000000000000      0.000000000000  0.000000000000     -0.000000000000  0.000000000000
  21   3  0.000000000000  0.000000000000      0.000000000000  0.000000000000      0.650166925324  0.000000000000
  21   4  0.000000000000  0.000000000000      0.000000000000  0.000000000000     -0.650166925324  0.000000000000
  21   5 -0.160502304465  0.000000000000      0.000000000000  0.000000000000     -0.000000000000  0.000000000000
  21   6  0.080251152232  0.000000000000     -0.138999073032  0.000000000000      0.000000000000  0.000000000000
  21   7  0.080251152232  0.000000000000      0.138999073032  0.000000000000     -0.000000000000  0.000000000000
  21   8 -0.080251152232  0.000000000000     -0.138999073032  0.000000000000     -0.000000000000  0.000000000000
  21   9 -0.080251152232  0.000000000000      0.138999073032  0.000000000000      0.000000000000  0.000000000000
  21  10  0.160502304465  0.000000000000      0.000000000000  0.000000000000      0.000000000000  0.000000000000
  22   1 -0.011947106801  0.000000000000     -0.065428171738  0.000000000000     -0.000000000000  0.000000000000
  22   2  0.011947106801  0.000000000000      0.065428171738  0.000000000000     -0.000000000000  0.000000000000
  22   3  0.655579205433  0.000000000000     -0.119707987799  0.000000000000      0.000000000000  0.000000000000
  22   4 -0.655579205433  0.000000000000      0.119707987799  0.000000000000      0.000000000000  0.000000000000
  22   5  0.011313444704  0.000000000000     -0.119579890927  0.000000000000     -0.122731719665  0.000000000000
  22   6 -0.092156181043  0.000000000000      0.002219713396  0.000000000000      0.080774066685  0.000000000000
  22   7  0.065060183345  0.000000000000      0.030927235651  0.000000000000      0.041957652980  0.000000000000
  22   8 -0.065060183345  0.000000000000     -0.030927235651  0.000000000000     -0.041957652980  0.000000000000
  22   9  0.092156181043  0.000000000000     -0.002219713396  0.000000000000     -0.080774066685  0.000000000000
  22  10 -0.011313444704  0.000000000000      0.119579890927  0.000000000000      0.122731719665  0.000000000000
  23   1 -0.065428171738  0.000000000000      0.011947106801  0.000000000000     -0.000000000000  0.000000000000
  23   2  0.065428171738  0.000000000000     -0.011947106801  0.000000000000     -0.000000000000  0.000000000000
  23   3 -0.119707987799  0.000000000000     -0.655579205433  0.000000000000      0.000000000000  0.000000000000
  23   4  0.119707987799  0.000000000000      0.655579205433  0.000000000000      0.000000000000  0.000000000000
  23   5  0.061957929674  0.000000000000      0.021835146700  0.000000000000      0.022410666901  0.000000000000
  23   6 -0.059841674649  0.000000000000     -0.081634479047  0.000000000000      0.095083453630  0.000000000000
  23   7 -0.088549196905  0.000000000000      0.075581885342  0.000000000000     -0.117494120531  0.000000000000
  23   8  0.088549196905  0.000000000000     -0.075581885342  0.000000000000      0.117494120531  0.000000000000
  23   9  0.059841674649  0.000000000000      0.081634479047  0.000000000000     -0.095083453630  0.000000000000
  23  10 -0.061957929674  0.000000000000     -0.021835146700  0.000000000000     -0.022410666901  0.000000000000
  24   1  0.000000000000  0.000000000000      0.000000000000  0.000000000000     -0.460787837766  0.000000000000
  24   2 -0.000000000000  0.000000000000     -0.000000000000  0.000000000000     -0.460787837766  0.000000000000
  24   3 -0.000000000000  0.000000000000      0.000000000000  0.000000000000      0.364462137843  0.000000000000
  24   4  0.000000000000  0.000000000000     -0.000000000000  0.000000000000      0.364462137843  0.000000000000
  24   5 -0.000000000000  0.000000000000     -0.227185383589  0.000000000000      0.000879980394  0.000000000000
  24   6  0.196748313556  0.000000000000      0.113592691794  0.000000000000      0.000879980394  0.000000000000
  24   7 -0.196748313556  0.000000000000      0.113592691794  0.000000000000      0.000879980394  0.000000000000
  24   8 -0.196748313556  0.000000000000      0.113592691794  0.000000000000      0.000879980394  0.000000000000
  24   9  0.196748313556  0.000000000000      0.113592691794  0.000000000000      0.000879980394  0.000000000000
  24  10  0.000000000000  0.000000000000     -0.227185383589  0.000000000000      0.000879980394  0.000000000000
  25   1 -0.000000000000  0.000000000000      0.000000000000  0.000000000000     -0.368488149482  0.000000000000
  25   2 -0.000000000000  0.000000000000      0.000000000000  0.000000000000     -0.368488149482  0.000000000000
  25   3 -0.000000000000  0.000000000000      0.000000000000  0.000000000000     -0.530778656656  0.000000000000
  25   4  0.000000000000  0.000000000000      0.000000000000  0.000000000000     -0.530778656656  0.000000000000
  25   5 -0.000000000000  0.000000000000     -0.034077089905  0.000000000000      0.162282425789  0.000000000000
  25   6  0.029511625545  0.000000000000      0.017038544952  0.000000000000      0.162282425789  0.000000000000
  25   7 -0.029511625545  0.000000000000      0.017038544952  0.000000000000      0.162282425789  0.000000000000
  25   8 -0.029511625545  0.000000000000      0.017038544952  0.000000000000      0.162282425789  0.000000000000
  25   9  0.029511625545  0.000000000000      0.017038544952  0.000000000000      0.162282425789  0.000000000000
  25  10  0.000000000000  0.000000000000     -0.034077089905  0.000000000000      0.162282425789  0.000000000000
  26   1  0.215600791083  0.000000000000     -0.628470437868  0.000000000000     -0.000000000000  0.000000000000
  26   2 -0.215600791083  0.000000000000      0.628470437868  0.000000000000     -0.000000000000  0.000000000000
  26   3 -0.087470794099  0.000000000000     -0.030007413664  0.000000000000     -0.000000000000  0.000000000000
  26   4  0.087470794099  0.000000000000      0.030007413664  0.000000000000     -0.000000000000  0.000000000000
  26   5  0.004841030595  0.000000000000     -0.160775960129  0.000000000000      0.061394176490  0.000000000000
  26   6 -0.020930914726  0.000000000000     -0.028990911990  0.000000000000     -0.012457152419  0.000000000000
  26   7  0.106084257462  0.000000000000     -0.072564276707  0.000000000000     -0.048937024071  0.000000000000
  26   8 -0.106084257462  0.000000000000      0.072564276707  0.000000000000      0.048937024071  0.000000000000
  26   9  0.020930914726  0.000000000000      0.028990911990  0.000000000000      0.012457152419  0.000000000000
  26  10 -0.004841030595  0.000000000000      0.160775960129  0.000000000000     -0.061394176490  0.000000000000
  27   1 -0.628470437868  0.000000000000     -0.215600791083  0.000000000000      0.000000000000  0.000000000000
  27   2  0.628470437868  0.000000000000      0.215600791083  0.000000000000      0.000000000000  0.000000000000
  27   3 -0.030007413664  0.000000000000      0.087470794099  0.000000000000     -0.000000000000  0.000000000000
  27   4  0.030007413664  0.000000000000     -0.087470794099  0.000000000000     -0.000000000000  0.000000000000
  27   5 -0.014111472422  0.000000000000     -0.055155218292  0.000000000000      0.021061663718  0.000000000000
  27   6 -0.145896520561  0.000000000000     -0.080927163613  0.000000000000     -0.063699748344  0.000000000000
  27   7 -0.102323155844  0.000000000000      0.046088008575  0.000000000000      0.042638084626  0.000000000000
  27   8  0.102323155844  0.000000000000     -0.046088008575  0.000000000000     -0.042638084626  0.000000000000
  27   9  0.145896520561  0.000000000000      0.080927163613  0.000000000000      0.063699748344  0.000000000000
  27  10  0.014111472422  0.000000000000      0.055155218292  0.000000000000     -0.021061663718  0.000000000000
  28   1  0.083724257552  0.000000000000     -0.656600669381  0.000000000000     -0.000000000000  0.000000000000
  28   2  0.083724257552  0.000000000000     -0.656600669381  0.000000000000     -0.000000000000  0.000000000000
  28   3 -0.006161786301  0.000000000000      0.048323307102  0.000000000000     -0.000000000000  0.000000000000
  28   4 -0.006161786301  0.000000000000      0.048323307102  0.000000000000     -0.000000000000  0.000000000000
  28   5 -0.000750780581  0.000000000000      0.180557663931  0.000000000000     -0.079946915298  0.000000000000
  28   6  0.058179106940  0.000000000000      0.039911121973  0.000000000000      0.031145051045  0.000000000000
  28   7 -0.093089315111  0.000000000000      0.059199613316  0.000000000000      0.048801864253  0.000000000000
  28   8 -0.093089315111  0.000000000000      0.059199613316  0.000000000000      0.048801864253  0.000000000000
  28   9  0.058179106940  0.000000000000      0.039911121973  0.000000000000      0.031145051045  0.000000000000
  28  10 -0.000750780581  0.000000000000      0.180557663931  0.000000000000     -0.079946915298  0.000000000000
  29   1  0.656600669381  0.000000000000      0.083724257552  0.000000000000      0.000000000000  0.000000000000
  29   2  0.656600669381  0.000000000000      0.083724257552  0.000000000000     -0.000000000000  0.000000000000
  29   3 -0.048323307102  0.000000000000     -0.006161786301  0.000000000000      0.000000000000  0.000000000000
  29   4 -0.048323307102  0.000000000000     -0.006161786301  0.000000000000      0.000000000000  0.000000000000
  29   5 -0.005887935549  0.000000000000     -0.023023211920  0.000000000000      0.010194165859  0.000000000000
  29   6 -0.146534477507  0.000000000000     -0.081953099441  0.000000000000     -0.074333142532  0.000000000000
  29   7 -0.127245986164  0.000000000000      0.069315322609  0.000000000000      0.064138976673  0.000000000000
  29   8 -0.127245986164  0.000000000000      0.069315322609  0.000000000000      0.064138976673  0.000000000000
  29   9 -0.146534477507  0.000000000000     -0.081953099441  0.000000000000     -0.074333142532  0.000000000000
  29  10 -0.005887935549  0.000000000000     -0.023023211920  0.000000000000      0.010194165859  0.000000000000
  30   1  0.000000000000  0.000000000000      0.000000000000  0.000000000000     -0.704102769018  0.000000000000
  30   2  0.000000000000  0.000000000000      0.000000000000  0.000000000000      0.704102769018  0.000000000000
  30   3 -0.000000000000  0.000000000000      0.000000000000  0.000000000000      0.000000000000  0.000000000000
  30   4  0.000000000000  0.000000000000     -0.000000000000  0.000000000000      0.000000000000  0.000000000000
  30   5  0.000000000000  0.000000000000      0.033071120426  0.000000000000     -0.017871706156  0.000000000000
  30   6 -0.028640430420  0.000000000000     -0.016535560213  0.000000000000     -0.017871706156  0.000000000000
  30   7  0.028640430420  0.000000000000     -0.016535560213  0.000000000000     -0.017871706156  0.000000000000
  30   8 -0.028640430420  0.000000000000      0.016535560213  0.000000000000      0.017871706156  0.000000000000
  30   9  0.028640430420  0.000000000000      0.016535560213  0.000000000000      0.017871706156  0.000000000000
  30  10 -0.000000000000  0.000000000000     -0.033071120426  0.000000000000      0.017871706156  0.000000000000
